time,ecg
0.000000,-0.157815
0.003908,-0.159294
0.007816,-0.154489
0.011723,-0.143422
0.015631,-0.132180
0.019539,-0.124454
0.023447,-0.110263
0.027354,-0.061931
0.031262,0.054712
0.035170,0.255386
0.039078,0.511799
0.042986,0.744222
0.046893,0.844418
0.050801,0.724012
0.054709,0.365306
0.058617,-0.155100
0.062524,-0.688065
0.066432,-1.072548
0.070340,-1.205228
0.074248,-1.082358
0.078156,-0.792172
0.082063,-0.464388
0.085971,-0.206997
0.089879,-0.064903
0.093787,-0.018509
0.097694,-0.015036
0.101602,-0.007948
0.105510,0.019792
0.109418,0.057718
0.113326,0.086506
0.117233,0.096298
0.121141,0.092469
0.125049,0.088315
0.128957,0.093454
0.132864,0.107631
0.136772,0.123334
0.140680,0.133303
0.144588,0.136159
0.148496,0.136290
0.152403,0.139366
0.156311,0.147921
0.160219,0.160398
0.164127,0.173557
0.168034,0.185569
0.171942,0.197182
0.175850,0.210457
0.179758,0.226634
0.183665,0.245053
0.187573,0.263876
0.191481,0.281772
0.195389,0.299037
0.199297,0.317289
0.203204,0.338134
0.207112,0.361963
0.211020,0.387797
0.214928,0.414100
0.218835,0.439746
0.222743,0.464404
0.226651,0.488173
0.230559,0.510893
0.234467,0.531740
0.238374,0.549410
0.242282,0.562720
0.246190,0.571116
0.250098,0.574695
0.254005,0.573828
0.257913,0.568773
0.261821,0.559549
0.265729,0.546011
0.269637,0.527884
0.273544,0.504668
0.277452,0.475553
0.281360,0.439612
0.285268,0.396325
0.289175,0.346153
0.293083,0.290700
0.296991,0.232298
0.300899,0.173253
0.304807,0.115246
0.308714,0.059229
0.312622,0.005774
0.316530,-0.044491
0.320438,-0.090721
0.324345,-0.132057
0.328253,-0.167951
0.332161,-0.198340
0.336069,-0.223528
0.339977,-0.243946
0.343884,-0.259999
0.347792,-0.272123
0.351700,-0.280950
0.355608,-0.287383
0.359515,-0.292474
0.363423,-0.297098
0.367331,-0.301564
0.371239,-0.305375
0.375147,-0.307362
0.379054,-0.306258
0.382962,-0.301463
0.386870,-0.293570
0.390778,-0.284266
0.394685,-0.275624
0.398593,-0.269155
0.402501,-0.265140
0.406409,-0.262583
0.410317,-0.259790
0.414224,-0.255237
0.418132,-0.248252
0.422040,-0.239176
0.425948,-0.229042
0.429855,-0.219086
0.433763,-0.210325
0.437671,-0.203312
0.441579,-0.198052
0.445487,-0.194092
0.449394,-0.190815
0.453302,-0.187813
0.457210,-0.185110
0.461118,-0.183019
0.465025,-0.181720
0.468933,-0.180883
0.472841,-0.179693
0.476749,-0.177330
0.480657,-0.173598
0.484564,-0.169237
0.488472,-0.165632
0.492380,-0.164060
0.496288,-0.164935
0.500195,-0.167562
0.504103,-0.170588
0.508011,-0.172834
0.511919,-0.173961
0.515826,-0.174538
0.519734,-0.175508
0.523642,-0.177453
0.527550,-0.180180
0.531458,-0.182849
0.535365,-0.184511
0.539273,-0.184669
0.543181,-0.183516
0.547089,-0.181754
0.550996,-0.180106
0.554904,-0.178836
0.558812,-0.177618
0.562720,-0.175882
0.566628,-0.173353
0.570535,-0.170305
0.574443,-0.167209
0.578351,-0.164052
0.582259,-0.159961
0.586166,-0.153648
0.590074,-0.144472
0.593982,-0.133281
0.597890,-0.122202
0.601798,-0.113328
0.605705,-0.107124
0.609613,-0.101756
0.613521,-0.094001
0.617429,-0.081275
0.621336,-0.063471
0.625244,-0.043349
0.629152,-0.025238
0.633060,-0.012942
0.636968,-0.008172
0.640875,-0.010307
0.644783,-0.017395
0.648691,-0.027572
0.652599,-0.039934
0.656506,-0.054373
0.660414,-0.070671
0.664322,-0.087692
0.668230,-0.103412
0.672138,-0.115806
0.676045,-0.123978
0.679953,-0.128719
0.683861,-0.131996
0.687769,-0.135633
0.691676,-0.140000
0.695584,-0.143715
0.699492,-0.144756
0.703400,-0.142342
0.707308,-0.138099
0.711215,-0.135265
0.715123,-0.136109
0.719031,-0.139495
0.722939,-0.141044
0.726846,-0.136609
0.730754,-0.126632
0.734662,-0.116892
0.738570,-0.112682
0.742478,-0.108619
0.746385,-0.081923
0.750293,0.001966
0.754201,0.168854
0.758109,0.409006
0.762016,0.661408
0.765924,0.824855
0.769832,0.798002
0.773740,0.531689
0.777648,0.065126
0.781555,-0.477769
0.785463,-0.935121
0.789371,-1.175469
0.793279,-1.152693
0.797186,-0.919107
0.801094,-0.591689
0.805002,-0.292336
0.808910,-0.095575
0.812818,-0.009410
0.816725,0.006913
0.820633,0.005714
0.824541,0.019288
0.828449,0.050136
0.832356,0.082253
0.836264,0.100079
0.840172,0.100603
0.844080,0.092705
0.847987,0.088104
0.851895,0.092785
0.855803,0.104873
0.859711,0.118615
0.863619,0.129749
0.867526,0.137946
0.871434,0.145460
0.875342,0.154321
0.879250,0.164857
0.883157,0.176375
0.887065,0.188697
0.890973,0.202732
0.894881,0.219574
0.898789,0.239190
0.902696,0.260097
0.906604,0.280378
0.910512,0.299079
0.914420,0.316802
0.918327,0.335151
0.922235,0.355690
0.926143,0.379209
0.930051,0.405614
0.933959,0.434165
0.937866,0.463757
0.941774,0.493081
0.945682,0.520759
0.949590,0.545566
0.953497,0.566691
0.957405,0.583860
0.961313,0.597122
0.965221,0.606427
0.969129,0.611348
0.973036,0.611266
0.976944,0.605892
0.980852,0.595641
0.984760,0.581429
0.988667,0.563932
0.992575,0.542823
0.996483,0.516607
1.000391,0.483272
1.004299,0.441453
1.008206,0.391407
1.012114,0.335178
1.016022,0.275842
1.019930,0.216293
1.023837,0.158322
1.027745,0.102519
1.031653,0.048894
1.035561,-0.002347
1.039469,-0.050460
1.043376,-0.094401
1.047284,-0.133341
1.051192,-0.167004
1.055100,-0.195599
1.059007,-0.219452
1.062915,-0.238699
1.066823,-0.253346
1.070731,-0.263694
1.074639,-0.270734
1.078546,-0.276018
1.082454,-0.280969
1.086362,-0.286031
1.090270,-0.290326
1.094177,-0.292131
1.098085,-0.289966
1.101993,-0.283642
1.105901,-0.274586
1.109809,-0.265177
1.113716,-0.257435
1.117624,-0.251897
1.121532,-0.247396
1.125440,-0.241884
1.129347,-0.233793
1.133255,-0.223038
1.137163,-0.211009
1.141071,-0.199597
1.144979,-0.189984
1.148886,-0.182094
1.152794,-0.175019
1.156702,-0.167961
1.160610,-0.160886
1.164517,-0.154441
1.168425,-0.149315
1.172333,-0.145679
1.176241,-0.143112
1.180148,-0.140968
1.184056,-0.138801
1.187964,-0.136529
1.191872,-0.134335
1.195780,-0.132456
1.199687,-0.131042
1.203595,-0.130135
1.207503,-0.129738
1.211411,-0.129886
1.215318,-0.130604
1.219226,-0.131788
1.223134,-0.133150
1.227042,-0.134330
1.230950,-0.135075
1.234857,-0.135294
1.238765,-0.134964
1.242673,-0.134023
1.246581,-0.132430
1.250488,-0.130327
1.254396,-0.128104
1.258304,-0.126213
1.262212,-0.124827
1.266120,-0.123633
1.270027,-0.122036
1.273935,-0.119724
1.277843,-0.117138
1.281751,-0.115300
1.285658,-0.114924
1.289566,-0.115453
1.293474,-0.114949
1.297382,-0.111188
1.301290,-0.103348
1.305197,-0.093046
1.309105,-0.083780
1.313013,-0.078868
1.316921,-0.079123
1.320828,-0.081855
1.324736,-0.082051
1.328644,-0.075193
1.332552,-0.060011
1.336460,-0.039485
1.340367,-0.019463
1.344275,-0.005768
1.348183,-0.001497
1.352091,-0.005991
1.355998,-0.015841
1.359906,-0.027132
1.363814,-0.037512
1.367722,-0.046943
1.371630,-0.056872
1.375537,-0.068555
1.379445,-0.081756
1.383353,-0.094707
1.387261,-0.105260
1.391168,-0.112311
1.395076,-0.116392
1.398984,-0.119017
1.402892,-0.121306
1.406800,-0.123026
1.410707,-0.122844
1.414615,-0.119715
1.418523,-0.114302
1.422431,-0.109098
1.426338,-0.106737
1.430246,-0.107537
1.434154,-0.108417
1.438062,-0.104792
1.441970,-0.094653
1.445877,-0.081432
1.449785,-0.071705
1.453693,-0.067017
1.457601,-0.054623
1.461508,-0.005793
1.465416,0.111836
1.469324,0.310143
1.473232,0.557466
1.477140,0.773918
1.481047,0.855405
1.484955,0.720299
1.488863,0.356456
1.492771,-0.158749
1.496678,-0.681025
1.500586,-1.057004
1.504494,-1.189024
1.508402,-1.073309
1.512309,-0.792513
1.516217,-0.469147
1.520125,-0.207303
1.524033,-0.053717
1.527941,0.005301
1.531848,0.016797
1.535756,0.025382
1.539664,0.050550
1.543572,0.086193
1.547479,0.115826
1.551387,0.129072
1.555295,0.128242
1.559203,0.123613
1.563111,0.124183
1.567018,0.131938
1.570926,0.142882
1.574834,0.152162
1.578742,0.158260
1.582649,0.163291
1.586557,0.170308
1.590465,0.180620
1.594373,0.193352
1.598281,0.207004
1.602188,0.221123
1.606096,0.236502
1.610004,0.253974
1.613912,0.273181
1.617819,0.292568
1.621727,0.310631
1.625635,0.327291
1.629543,0.344154
1.633451,0.363441
1.637358,0.386446
1.641266,0.412746
1.645174,0.440657
1.649082,0.468445
1.652989,0.495281
1.656897,0.521251
1.660805,0.546554
1.664713,0.570608
1.668621,0.591818
1.672528,0.608188
1.676436,0.618318
1.680344,0.622032
1.684252,0.620238
1.688159,0.614229
1.692067,0.604955
1.695975,0.592670
1.699883,0.576985
1.703791,0.557102
1.707698,0.532070
1.711606,0.501032
1.715514,0.463497
1.719422,0.419536
1.723329,0.369757
1.727237,0.315130
1.731145,0.256852
1.735053,0.196417
1.738961,0.135770
1.742868,0.077294
1.746776,0.023468
1.750684,-0.023743
1.754592,-0.063466
1.758499,-0.096139
1.762407,-0.123173
1.766315,-0.146148
1.770223,-0.165989
1.774131,-0.182645
1.778038,-0.195483
1.781946,-0.204130
1.785854,-0.209114
1.789762,-0.211835
1.793669,-0.213832
1.797577,-0.215849
1.801485,-0.217362
1.805393,-0.216955
1.809301,-0.213360
1.813208,-0.206468
1.817116,-0.197640
1.821024,-0.189081
1.824932,-0.182698
1.828839,-0.179133
1.832747,-0.177533
1.836655,-0.176138
1.840563,-0.173286
1.844470,-0.168243
1.848378,-0.161427
1.852286,-0.153962
1.856194,-0.146903
1.860102,-0.140645
1.864009,-0.134932
1.867917,-0.129357
1.871825,-0.123904
1.875733,-0.119049
1.879640,-0.115369
1.883548,-0.113043
1.887456,-0.111709
1.891364,-0.110743
1.895272,-0.109662
1.899179,-0.108279
1.903087,-0.106605
1.906995,-0.104732
1.910903,-0.102850
1.914810,-0.101301
1.918718,-0.100517
1.922626,-0.100813
1.926534,-0.102203
1.930442,-0.104377
1.934349,-0.106871
1.938257,-0.109291
1.942165,-0.111414
1.946073,-0.113134
1.949980,-0.114374
1.953888,-0.115112
1.957796,-0.115478
1.961704,-0.115726
1.965612,-0.115980
1.969519,-0.115976
1.973427,-0.115103
1.977335,-0.112851
1.981243,-0.109337
1.985150,-0.105413
1.989058,-0.102154
1.992966,-0.100089
1.996874,-0.098800
2.000782,-0.097293
2.004689,-0.094895
2.008597,-0.091892
2.012505,-0.089238
2.016413,-0.087464
2.020320,-0.085710
2.024228,-0.081872
2.028136,-0.074027
2.032044,-0.062173
2.035952,-0.048902
2.039859,-0.038230
2.043767,-0.033145
2.047675,-0.033462
2.051583,-0.035540
2.055490,-0.034204
2.059398,-0.025701
2.063306,-0.009838
2.067214,0.009913
2.071122,0.028223
2.075029,0.040376
2.078937,0.044040
2.082845,0.039659
2.086753,0.029627
2.090660,0.016905
2.094568,0.003832
2.098476,-0.008423
2.102384,-0.019684
2.106292,-0.030176
2.110199,-0.039985
2.114107,-0.048873
2.118015,-0.056442
2.121923,-0.062407
2.125830,-0.066741
2.129738,-0.069651
2.133646,-0.071441
2.137554,-0.072319
2.141462,-0.072297
2.145369,-0.071315
2.149277,-0.069578
2.153185,-0.067757
2.157093,-0.066590
2.161000,-0.065990
2.164908,-0.064463
2.168816,-0.059865
2.172724,-0.051322
2.176631,-0.040433
2.180539,-0.029217
2.184447,-0.014396
2.188355,0.018247
2.192263,0.092828
2.196170,0.230972
2.200078,0.431037
2.203986,0.650810
2.207894,0.808681
2.211801,0.810855
2.215709,0.596475
2.219617,0.178017
2.223525,-0.348229
2.227433,-0.833104
2.231340,-1.135319
2.235248,-1.181703
2.239156,-0.995157
2.243064,-0.676196
2.246971,-0.350084
2.250879,-0.109892
2.254787,0.014815
2.258695,0.051865
2.262603,0.053806
2.266510,0.062397
2.270418,0.090620
2.274326,0.127449
2.278234,0.155576
2.282141,0.166887
2.286049,0.166224
2.289957,0.164527
2.293865,0.169395
2.297773,0.180707
2.301680,0.193187
2.305588,0.202178
2.309496,0.207424
2.313404,0.212421
2.317311,0.220892
2.321219,0.233865
2.325127,0.249566
2.329035,0.265593
2.332943,0.281083
2.336850,0.296975
2.340758,0.314482
2.344666,0.333438
2.348574,0.352148
2.352481,0.368864
2.356389,0.383538
2.360297,0.398266
2.364205,0.416015
2.368113,0.438629
2.372020,0.465629
2.375928,0.494626
2.379836,0.522876
2.383744,0.548748
2.387651,0.572123
2.391559,0.593652
2.395467,0.613612
2.399375,0.631248
2.403283,0.645032
2.407190,0.653529
2.411098,0.656220
2.415006,0.653698
2.418914,0.647173
2.422821,0.637641
2.426729,0.625280
2.430637,0.609395
2.434545,0.588835
2.438453,0.562547
2.442360,0.529938
2.446268,0.490962
2.450176,0.446012
2.454084,0.395789
2.457991,0.341255
2.461899,0.283654
2.465807,0.224480
2.469715,0.165334
2.473623,0.107731
2.477530,0.053020
2.481438,0.002479
2.485346,-0.042588
2.489254,-0.080977
2.493161,-0.111994
2.497069,-0.135874
2.500977,-0.153830
2.504885,-0.167552
2.508792,-0.178436
2.512700,-0.187047
2.516608,-0.193222
2.520516,-0.196742
2.524424,-0.198013
2.528331,-0.198150
2.532239,-0.198312
2.536147,-0.198773
2.540055,-0.198542
2.543962,-0.195975
2.547870,-0.190057
2.551778,-0.181399
2.555686,-0.172137
2.559594,-0.164712
2.563501,-0.160391
2.567409,-0.158559
2.571317,-0.157234
2.575225,-0.154349
2.579132,-0.148920
2.583040,-0.141418
2.586948,-0.133276
2.590856,-0.125988
2.594764,-0.120369
2.598671,-0.116346
2.602579,-0.113225
2.606487,-0.110178
2.610395,-0.106631
2.614302,-0.102439
2.618210,-0.097859
2.622118,-0.093379
2.626026,-0.089437
2.629934,-0.086166
2.633841,-0.083325
2.637749,-0.080524
2.641657,-0.077580
2.645565,-0.074720
2.649472,-0.072442
2.653380,-0.071113
2.657288,-0.070638
2.661196,-0.070473
2.665104,-0.069989
2.669011,-0.068878
2.672919,-0.067268
2.676827,-0.065506
2.680735,-0.063853
2.684642,-0.062367
2.688550,-0.060997
2.692458,-0.059731
2.696366,-0.058669
2.700274,-0.058018
2.704181,-0.058045
2.708089,-0.058931
2.711997,-0.060547
2.715905,-0.062349
2.719812,-0.063584
2.723720,-0.063782
2.727628,-0.063179
2.731536,-0.062658
2.735444,-0.063073
2.739351,-0.064325
2.743259,-0.064904
2.747167,-0.062480
2.751075,-0.055443
2.754982,-0.044447
2.758890,-0.032688
2.762798,-0.024374
2.766706,-0.022138
2.770614,-0.025081
2.774521,-0.028888
2.778429,-0.028087
2.782337,-0.019129
2.786245,-0.002381
2.790152,0.018072
2.794060,0.036549
2.797968,0.048398
2.801876,0.051674
2.805784,0.047255
2.809691,0.037754
2.813599,0.026078
2.817507,0.014302
2.821415,0.003228
2.825322,-0.007371
2.829230,-0.018024
2.833138,-0.028789
2.837046,-0.038890
2.840953,-0.047019
2.844861,-0.052172
2.848769,-0.054433
2.852677,-0.055076
2.856585,-0.055754
2.860492,-0.057302
2.864400,-0.059132
2.868308,-0.059846
2.872216,-0.058644
2.876123,-0.056277
2.880031,-0.054444
2.883939,-0.053903
2.887847,-0.053041
2.891755,-0.048748
2.895662,-0.039517
2.899570,-0.027870
2.903478,-0.018286
2.907386,-0.009734
2.911293,0.012476
2.915201,0.076903
2.919109,0.212144
2.923017,0.422332
2.926925,0.666041
2.930832,0.856169
2.934740,0.889335
2.938648,0.695437
2.942556,0.282197
2.946463,-0.252662
2.950371,-0.753793
2.954279,-1.072423
2.958187,-1.130156
2.962095,-0.948812
2.966002,-0.631406
2.969910,-0.306908
2.973818,-0.070746
2.977726,0.047691
2.981633,0.078253
2.985541,0.075552
2.989449,0.082022
2.993357,0.109807
2.997265,0.146632
3.001172,0.174774
3.005080,0.186852
3.008988,0.188761
3.012896,0.191603
3.016803,0.201775
3.020711,0.217289
3.024619,0.231614
3.028527,0.240248
3.032435,0.244178
3.036342,0.248149
3.040250,0.256237
3.044158,0.268836
3.048066,0.283194
3.051973,0.296323
3.055881,0.307446
3.059789,0.318114
3.063697,0.330434
3.067605,0.345279
3.071512,0.361939
3.075420,0.379120
3.079328,0.396181
3.083236,0.413596
3.087143,0.432486
3.091051,0.453784
3.094959,0.477641
3.098867,0.503380
3.102775,0.529865
3.106682,0.555997
3.110590,0.581029
3.114498,0.604579
3.118406,0.626387
3.122313,0.646020
3.126221,0.662724
3.130129,0.675496
3.134037,0.683335
3.137945,0.685575
3.141852,0.682151
3.145760,0.673649
3.149668,0.660979
3.153576,0.644737
3.157483,0.624611
3.161391,0.599296
3.165299,0.567112
3.169207,0.526939
3.173114,0.478881
3.177022,0.424280
3.180930,0.365254
3.184838,0.304133
3.188746,0.243053
3.192653,0.183762
3.196561,0.127554
3.200469,0.075312
3.204377,0.027583
3.208284,-0.015323
3.212192,-0.053252
3.216100,-0.086119
3.220008,-0.113872
3.223916,-0.136546
3.227823,-0.154384
3.231731,-0.167878
3.235639,-0.177675
3.239547,-0.184431
3.243454,-0.188763
3.247362,-0.191289
3.251270,-0.192598
3.255178,-0.193076
3.259086,-0.192692
3.262993,-0.190994
3.266901,-0.187411
3.270809,-0.181717
3.274717,-0.174377
3.278624,-0.166508
3.282532,-0.159424
3.286440,-0.154009
3.290348,-0.150261
3.294256,-0.147284
3.298163,-0.143742
3.302071,-0.138519
3.305979,-0.131221
3.309887,-0.122287
3.313794,-0.112698
3.317702,-0.103515
3.321610,-0.095508
3.325518,-0.089000
3.329426,-0.083904
3.333333,-0.079866
3.337241,-0.076417
3.341149,-0.073126
3.345057,-0.069684
3.348964,-0.065948
3.352872,-0.061978
3.356780,-0.058057
3.360688,-0.054672
3.364596,-0.052367
3.368503,-0.051521
3.372411,-0.052170
3.376319,-0.053992
3.380227,-0.056434
3.384134,-0.058861
3.388042,-0.060693
3.391950,-0.061560
3.395858,-0.061508
3.399766,-0.061118
3.403673,-0.061319
3.407581,-0.062854
3.411489,-0.065707
3.415397,-0.068923
3.419304,-0.071109
3.423212,-0.071356
3.427120,-0.069954
3.431028,-0.068262
3.434936,-0.067708
3.438843,-0.068666
3.442751,-0.070155
3.446659,-0.070711
3.450567,-0.069726
3.454474,-0.068066
3.458382,-0.067314
3.462290,-0.068169
3.466198,-0.069308
3.470106,-0.067767
3.474013,-0.060795
3.477921,-0.048014
3.481829,-0.032329
3.485737,-0.018708
3.489644,-0.011302
3.493552,-0.010668
3.497460,-0.013003
3.501368,-0.012141
3.505275,-0.003222
3.509183,0.014265
3.513091,0.036012
3.516999,0.055309
3.520907,0.066757
3.524814,0.068886
3.528722,0.064154
3.532630,0.056646
3.536538,0.049292
3.540445,0.042484
3.544353,0.034736
3.548261,0.024543
3.552169,0.011914
3.556077,-0.001405
3.559984,-0.013005
3.563892,-0.021301
3.567800,-0.026416
3.571708,-0.029889
3.575615,-0.033403
3.579523,-0.037378
3.583431,-0.040457
3.587339,-0.040415
3.591247,-0.036055
3.595154,-0.028745
3.599062,-0.022135
3.602970,-0.019715
3.606878,-0.021773
3.610785,-0.024414
3.614693,-0.022231
3.618601,-0.013058
3.622509,-0.000448
3.626417,0.010079
3.630324,0.020396
3.634232,0.048006
3.638140,0.123899
3.642048,0.275386
3.645955,0.499897
3.649863,0.745852
3.653771,0.917882
3.657679,0.912293
3.661587,0.669513
3.665494,0.215635
3.669402,-0.333752
3.673310,-0.815398
3.677218,-1.087550
3.681125,-1.090773
3.685033,-0.868225
3.688941,-0.536047
3.692849,-0.222660
3.696757,-0.011649
3.700664,0.082688
3.704572,0.100167
3.708480,0.096404
3.712388,0.107959
3.716295,0.139765
3.720203,0.175782
3.724111,0.199165
3.728019,0.205848
3.731927,0.204314
3.735834,0.205900
3.739742,0.215521
3.743650,0.229764
3.747558,0.241963
3.751465,0.248632
3.755373,0.251882
3.759281,0.256797
3.763189,0.266881
3.767097,0.281599
3.771004,0.297500
3.774912,0.311347
3.778820,0.322396
3.782728,0.332305
3.786635,0.343283
3.790543,0.356353
3.794451,0.371049
3.798359,0.386422
3.802267,0.402261
3.806174,0.419491
3.810082,0.439534
3.813990,0.463202
3.817898,0.489979
3.821805,0.518197
3.825713,0.545925
3.829621,0.571886
3.833529,0.595760
3.837436,0.617772
3.841344,0.638017
3.845252,0.656036
3.849160,0.670874
3.853068,0.681481
3.856975,0.687141
3.860883,0.687665
3.864791,0.683298
3.868699,0.674451
3.872606,0.661437
3.876514,0.644291
3.880422,0.622688
3.884330,0.595934
3.888238,0.563096
3.892145,0.523321
3.896053,0.476297
3.899961,0.422697
3.903869,0.364242
3.907776,0.303247
3.911684,0.241821
3.915592,0.181311
3.919500,0.122393
3.923408,0.065728
3.927315,0.012581
3.931223,-0.035169
3.935131,-0.075702
3.939039,-0.108167
3.942946,-0.133124
3.946854,-0.152191
3.950762,-0.167092
3.954670,-0.178793
3.958578,-0.187326
3.962485,-0.192401
3.966393,-0.194272
3.970301,-0.194128
3.974209,-0.193668
3.978116,-0.194135
3.982024,-0.195542
3.985932,-0.196662
3.989840,-0.195878
3.993748,-0.192326
3.997655,-0.186544
4.001563,-0.180137
4.005471,-0.174666
4.009379,-0.170561
4.013286,-0.166878
4.017194,-0.162052
4.021102,-0.155058
4.025010,-0.146137
4.028918,-0.136581
4.032825,-0.127816
4.036733,-0.120466
4.040641,-0.114060
4.044549,-0.107587
4.048456,-0.100467
4.052364,-0.093183
4.056272,-0.087028
4.060180,-0.083129
4.064088,-0.081488
4.067995,-0.080855
4.071903,-0.079559
4.075811,-0.076670
4.079719,-0.072615
4.083626,-0.068841
4.087534,-0.066803
4.091442,-0.067016
4.095350,-0.068779
4.099258,-0.070704
4.103165,-0.071626
4.107073,-0.071307
4.110981,-0.070529
4.114889,-0.070578
4.118796,-0.072471
4.122704,-0.076351
4.126612,-0.081388
4.130520,-0.086217
4.134428,-0.089666
4.138335,-0.091378
4.142243,-0.091982
4.146151,-0.092716
4.150059,-0.094670
4.153966,-0.098083
4.157874,-0.102166
4.161782,-0.105628
4.165690,-0.107600
4.169597,-0.108281
4.173505,-0.108781
4.177413,-0.110117
4.181321,-0.112057
4.185229,-0.112776
4.189136,-0.109846
4.193044,-0.102078
4.196952,-0.090881
4.200860,-0.079927
4.204767,-0.073032
4.208675,-0.071531
4.212583,-0.072967
4.216491,-0.072177
4.220399,-0.064288
4.224306,-0.047786
4.228214,-0.025664
4.232122,-0.003861
4.236030,0.012006
4.239937,0.019468
4.243845,0.019841
4.247753,0.016528
4.251661,0.012388
4.255569,0.008034
4.259476,0.002035
4.263384,-0.007386
4.267292,-0.020485
4.271200,-0.035296
4.275107,-0.048517
4.279015,-0.057385
4.282923,-0.061265
4.286831,-0.061871
4.290739,-0.061933
4.294646,-0.063187
4.298554,-0.065090
4.302462,-0.065305
4.306370,-0.061772
4.310277,-0.054872
4.314185,-0.047801
4.318093,-0.044401
4.322001,-0.045791
4.325909,-0.048678
4.329816,-0.047465
4.333724,-0.039249
4.337632,-0.027482
4.341540,-0.019585
4.345447,-0.017761
4.349355,-0.008641
4.353263,0.038533
4.357171,0.158327
4.361079,0.363057
4.364986,0.618466
4.368894,0.839677
4.372802,0.917871
4.376710,0.770277
4.380617,0.388881
4.384525,-0.141001
4.388433,-0.667484
4.392341,-1.034369
4.396249,-1.147766
4.400156,-1.012284
4.404064,-0.718899
4.407972,-0.393910
4.411880,-0.139101
4.415787,0.005050
4.419695,0.058191
4.423603,0.069534
4.427511,0.081420
4.431419,0.108891
4.435326,0.142572
4.439234,0.166066
4.443142,0.172141
4.447050,0.167013
4.450957,0.163049
4.454865,0.168430
4.458773,0.182341
4.462681,0.198050
4.466589,0.209668
4.470496,0.216538
4.474404,0.222410
4.478312,0.231281
4.482220,0.244004
4.486127,0.258275
4.490035,0.271276
4.493943,0.282224
4.497851,0.292712
4.501758,0.305033
4.505666,0.320290
4.509574,0.337870
4.513482,0.356384
4.517390,0.374950
4.521297,0.393678
4.525205,0.413147
4.529113,0.433591
4.533021,0.454654
4.536928,0.475884
4.540836,0.497370
4.544744,0.519778
4.548652,0.543606
4.552560,0.568262
4.556467,0.591784
4.560375,0.611525
4.564283,0.625354
4.568191,0.632543
4.572098,0.633827
4.576006,0.630747
4.579914,0.624763
4.583822,0.616604
4.587730,0.606044
4.591637,0.592094
4.595545,0.573483
4.599453,0.549200
4.603361,0.518849
4.607268,0.482662
4.611176,0.441253
4.615084,0.395357
4.618992,0.345725
4.622900,0.293195
4.626807,0.238833
4.630715,0.184027
4.634623,0.130409
4.638531,0.079610
4.642438,0.032910
4.646346,-0.008999
4.650254,-0.046002
4.654162,-0.078293
4.658070,-0.106011
4.661977,-0.129038
4.665885,-0.147123
4.669793,-0.160316
4.673701,-0.169414
4.677608,-0.175976
4.681516,-0.181730
4.685424,-0.187636
4.689332,-0.193248
4.693240,-0.196935
4.697147,-0.196964
4.701055,-0.192811
4.704963,-0.185762
4.708871,-0.178331
4.712778,-0.172789
4.716686,-0.169786
4.720594,-0.167998
4.724502,-0.165073
4.728410,-0.159232
4.732317,-0.150438
4.736225,-0.140320
4.740133,-0.130986
4.744041,-0.123603
4.747948,-0.117817
4.751856,-0.112344
4.755764,-0.106142
4.759672,-0.099210
4.763580,-0.092438
4.767487,-0.086775
4.771395,-0.082491
4.775303,-0.079103
4.779211,-0.075924
4.783118,-0.072672
4.787026,-0.069626
4.790934,-0.067293
4.794842,-0.065938
4.798750,-0.065422
4.802657,-0.065423
4.806565,-0.065791
4.810473,-0.066651
4.814381,-0.068157
4.818288,-0.070127
4.822196,-0.071931
4.826104,-0.072765
4.830012,-0.072163
4.833919,-0.070368
4.837827,-0.068292
4.841735,-0.067031
4.845643,-0.067228
4.849551,-0.068721
4.853458,-0.070718
4.857366,-0.072378
4.861274,-0.073308
4.865182,-0.073595
4.869089,-0.073382
4.872997,-0.072442
4.876905,-0.070206
4.880813,-0.066367
4.884721,-0.061606
4.888628,-0.057744
4.892536,-0.056880
4.896444,-0.059834
4.900352,-0.064958
4.904259,-0.068425
4.908167,-0.066223
4.912075,-0.056774
4.915983,-0.042379
4.919891,-0.028269
4.923798,-0.019631
4.927706,-0.018389
4.931614,-0.021834
4.935522,-0.024044
4.939429,-0.019313
4.943337,-0.005483
4.947245,0.014796
4.951153,0.035530
4.955061,0.050523
4.958968,0.056309
4.962876,0.053323
4.966784,0.044928
4.970692,0.035095
4.974599,0.026162
4.978507,0.017931
4.982415,0.008514
4.986323,-0.003686
4.990231,-0.018250
4.994138,-0.032528
4.998046,-0.043177
5.001954,-0.048360
5.005862,-0.048959
5.009769,-0.047819
5.013677,-0.047596
5.017585,-0.048917
5.021493,-0.050312
5.025401,-0.049925
5.029308,-0.047486
5.033216,-0.044707
5.037124,-0.043595
5.041032,-0.044079
5.044939,-0.043356
5.048847,-0.038213
5.052755,-0.028695
5.056663,-0.019234
5.060571,-0.014166
5.064478,-0.008959
5.068386,0.016162
5.072294,0.091905
5.076202,0.241783
5.080109,0.457274
5.084017,0.682126
5.087925,0.821381
5.091833,0.778489
5.095741,0.505713
5.099648,0.040446
5.103556,-0.496729
5.107464,-0.946899
5.111372,-1.180280
5.115279,-1.151285
5.119187,-0.912141
5.123095,-0.579436
5.127003,-0.274441
5.130911,-0.070961
5.134818,0.023432
5.138726,0.049187
5.142634,0.057435
5.146542,0.078796
5.150449,0.114479
5.154357,0.148465
5.158265,0.166716
5.162173,0.168533
5.166081,0.164475
5.169988,0.166136
5.173896,0.177530
5.177804,0.194186
5.181712,0.208771
5.185619,0.217419
5.189527,0.221794
5.193435,0.226375
5.197343,0.234282
5.201250,0.245290
5.205158,0.257064
5.209066,0.267823
5.212974,0.277865
5.216882,0.288943
5.220789,0.302445
5.224697,0.318149
5.228605,0.334530
5.232513,0.350182
5.236420,0.365075
5.240328,0.380674
5.244236,0.398883
5.248144,0.420703
5.252052,0.445578
5.255959,0.471782
5.259867,0.497415
5.263775,0.521257
5.267683,0.543022
5.271590,0.562997
5.275498,0.581409
5.279406,0.597897
5.283314,0.611419
5.287222,0.620644
5.291129,0.624578
5.295037,0.622995
5.298945,0.616414
5.302853,0.605670
5.306760,0.591362
5.310668,0.573515
5.314576,0.551592
5.318484,0.524843
5.322392,0.492741
5.326299,0.455265
5.330207,0.412912
5.334115,0.366511
5.338023,0.317018
5.341930,0.265397
5.345838,0.212616
5.349746,0.159726
5.353654,0.107945
5.357562,0.058662
5.361469,0.013324
5.365377,-0.026786
5.369285,-0.060823
5.373193,-0.088611
5.377100,-0.110728
5.381008,-0.128312
5.384916,-0.142667
5.388824,-0.154829
5.392732,-0.165370
5.396639,-0.174460
5.400547,-0.182051
5.404455,-0.187980
5.408363,-0.191940
5.412270,-0.193484
5.416178,-0.192213
5.420086,-0.188152
5.423994,-0.182056
5.427902,-0.175349
5.431809,-0.169562
5.435717,-0.165556
5.439625,-0.162991
5.443533,-0.160491
5.447440,-0.156457
5.451348,-0.150010
5.455256,-0.141459
5.459164,-0.132010
5.463072,-0.123003
5.466979,-0.115236
5.470887,-0.108783
5.474795,-0.103314
5.478703,-0.098560
5.482610,-0.094579
5.486518,-0.091646
5.490426,-0.089896
5.494334,-0.089034
5.498242,-0.088357
5.502149,-0.087130
5.506057,-0.085058
5.509965,-0.082479
5.513873,-0.080134
5.517780,-0.078678
5.521688,-0.078297
5.525596,-0.078676
5.529504,-0.079269
5.533411,-0.079638
5.537319,-0.079648
5.541227,-0.079473
5.545135,-0.079471
5.549043,-0.080031
5.552950,-0.081433
5.556858,-0.083757
5.560766,-0.086843
5.564674,-0.090295
5.568581,-0.093530
5.572489,-0.095938
5.576397,-0.097150
5.580305,-0.097306
5.584213,-0.097090
5.588120,-0.097368
5.592028,-0.098590
5.595936,-0.100374
5.599844,-0.101688
5.603751,-0.101618
5.607659,-0.100194
5.611567,-0.098552
5.615475,-0.098137
5.619383,-0.099399
5.623290,-0.100914
5.627198,-0.099733
5.631106,-0.093056
5.635014,-0.080332
5.638921,-0.064345
5.642829,-0.050242
5.646737,-0.042737
5.650645,-0.043081
5.654553,-0.047810
5.658460,-0.050362
5.662368,-0.044794
5.666276,-0.029397
5.670184,-0.007901
5.674091,0.012486
5.677999,0.024954
5.681907,0.026469
5.685815,0.018728
5.689723,0.006423
5.693630,-0.005795
5.697538,-0.015692
5.701446,-0.023901
5.705354,-0.032537
5.709261,-0.043147
5.713169,-0.055348
5.717077,-0.066965
5.720985,-0.075492
5.724893,-0.079888
5.728800,-0.081410
5.732708,-0.082729
5.736616,-0.085809
5.740524,-0.090129
5.744431,-0.092850
5.748339,-0.091106
5.752247,-0.084722
5.756155,-0.076921
5.760063,-0.071962
5.763970,-0.071333
5.767878,-0.071878
5.771786,-0.068182
5.775694,-0.057808
5.779601,-0.044471
5.783509,-0.034382
5.787417,-0.026049
5.791325,-0.000957
5.795233,0.074413
5.799140,0.229965
5.803048,0.463618
5.806956,0.721029
5.810864,0.901968
5.814771,0.898761
5.818679,0.651565
5.822587,0.190462
5.826495,-0.363073
5.830403,-0.841836
5.834310,-1.104761
5.838218,-1.097474
5.842126,-0.869497
5.846034,-0.540801
5.849941,-0.238945
5.853849,-0.042747
5.857757,0.039164
5.861665,0.050024
5.865572,0.045274
5.869480,0.058624
5.873388,0.091653
5.877296,0.126291
5.881204,0.145552
5.885111,0.146519
5.889019,0.139103
5.892927,0.135625
5.896835,0.141405
5.900742,0.153110
5.904650,0.164053
5.908558,0.170575
5.912466,0.174228
5.916374,0.179159
5.920281,0.188017
5.924189,0.200126
5.928097,0.212879
5.932005,0.224443
5.935912,0.235231
5.939820,0.247155
5.943728,0.261741
5.947636,0.278885
5.951544,0.297153
5.955451,0.315094
5.959359,0.332344
5.963267,0.349707
5.967175,0.368371
5.971082,0.389068
5.974990,0.411788
5.978898,0.436038
5.982806,0.461208
5.986714,0.486654
5.990621,0.511540
5.994529,0.534713
5.998437,0.554845
6.002345,0.570788
6.006252,0.581904
6.010160,0.588168
6.014068,0.589990
6.017976,0.587889
6.021884,0.582206
6.025791,0.572987
6.029699,0.560060
6.033607,0.543195
6.037515,0.522208
6.041422,0.496935
6.045330,0.467069
6.049238,0.431995
6.053146,0.390820
6.057054,0.342803
6.060961,0.288108
6.064869,0.228409
6.068777,0.166808
6.072685,0.106945
6.076592,0.051775
6.080500,0.002738
6.084408,-0.040274
6.088316,-0.078294
6.092224,-0.112467
6.096131,-0.143447
6.100039,-0.171151
6.103947,-0.194873
6.107855,-0.213726
6.111762,-0.227242
6.115670,-0.235834
6.119578,-0.240839
6.123486,-0.244076
6.127394,-0.247109
6.131301,-0.250592
6.135209,-0.254034
6.139117,-0.256183
6.143025,-0.255856
6.146932,-0.252741
6.150840,-0.247652
6.154748,-0.242028
6.158656,-0.237030
6.162564,-0.232849
6.166471,-0.228659
6.170379,-0.223201
6.174287,-0.215573
6.178195,-0.205774
6.182102,-0.194748
6.186010,-0.183979
6.189918,-0.174853
6.193826,-0.168080
6.197733,-0.163449
6.201641,-0.160027
6.205549,-0.156719
6.209457,-0.152850
6.213365,-0.148427
6.217272,-0.143901
6.221180,-0.139683
6.225088,-0.135810
6.228996,-0.132038
6.232903,-0.128188
6.236811,-0.124386
6.240719,-0.121030
6.244627,-0.118562
6.248535,-0.117281
6.252442,-0.117271
6.256350,-0.118381
6.260258,-0.120231
6.264166,-0.122263
6.268073,-0.123909
6.271981,-0.124801
6.275889,-0.124896
6.279797,-0.124393
6.283705,-0.123501
6.287612,-0.122239
6.291520,-0.120435
6.295428,-0.118016
6.299336,-0.115336
6.303243,-0.113205
6.307151,-0.112390
6.311059,-0.112923
6.314967,-0.113844
6.318875,-0.113808
6.322782,-0.112143
6.326690,-0.109485
6.330598,-0.107323
6.334506,-0.106692
6.338413,-0.107017
6.342321,-0.106119
6.346229,-0.101576
6.350137,-0.092616
6.354045,-0.081129
6.357952,-0.070893
6.361860,-0.065296
6.365768,-0.064987
6.369676,-0.067086
6.373583,-0.066615
6.377491,-0.059355
6.381399,-0.044360
6.385307,-0.024612
6.389215,-0.005497
6.393122,0.007883
6.397030,0.012957
6.400938,0.010337
6.404846,0.002746
6.408753,-0.006919
6.412661,-0.017099
6.416569,-0.027820
6.420477,-0.039760
6.424385,-0.053024
6.428292,-0.066611
6.432200,-0.078908
6.436108,-0.088731
6.440016,-0.096037
6.443923,-0.101742
6.447831,-0.106792
6.451739,-0.111191
6.455647,-0.113775
6.459555,-0.113033
6.463462,-0.108571
6.467370,-0.102181
6.471278,-0.097410
6.475186,-0.097353
6.479093,-0.101875
6.483001,-0.106645
6.486909,-0.105711
6.490817,-0.096678
6.494725,-0.084343
6.498632,-0.077998
6.502540,-0.081340
6.506448,-0.080723
6.510356,-0.042299
6.514263,0.073828
6.518171,0.284946
6.522079,0.558013
6.525987,0.803763
6.529894,0.904906
6.533802,0.770618
6.537710,0.390097
6.541618,-0.146943
6.545526,-0.679649
6.549433,-1.044040
6.553341,-1.144911
6.557249,-0.993277
6.561157,-0.690547
6.565064,-0.371203
6.568972,-0.138129
6.572880,-0.025410
6.576788,-0.003405
6.580696,-0.014671
6.584603,-0.013791
6.588511,0.012365
6.592419,0.050170
6.596327,0.079402
6.600234,0.090620
6.604142,0.089042
6.608050,0.086417
6.611958,0.090430
6.615866,0.100336
6.619773,0.110460
6.623681,0.116667
6.627589,0.119805
6.631497,0.124041
6.635404,0.132674
6.639312,0.145532
6.643220,0.159809
6.647128,0.172942
6.651036,0.184672
6.654943,0.196693
6.658851,0.210627
6.662759,0.226390
6.666667,0.242349
6.670574,0.256948
6.674482,0.270250
6.678390,0.284090
6.682298,0.300827
6.686206,0.321781
6.690113,0.346543
6.694021,0.373473
6.697929,0.400782
6.701837,0.427270
6.705744,0.452296
6.709652,0.475278
6.713560,0.495375
6.717468,0.511652
6.721376,0.523492
6.725283,0.530768
6.729191,0.533661
6.733099,0.532386
6.737007,0.527107
6.740914,0.518028
6.744822,0.505421
6.748730,0.489436
6.752638,0.469837
6.756546,0.445934
6.760453,0.416823
6.764361,0.381795
6.768269,0.340633
6.772177,0.293671
6.776084,0.241740
6.779992,0.186168
6.783900,0.128794
6.787808,0.071810
6.791716,0.017325
6.795623,-0.033149
6.799531,-0.078989
6.803439,-0.120310
6.807347,-0.157529
6.811254,-0.190948
6.815162,-0.220569
6.819070,-0.246125
6.822978,-0.267235
6.826886,-0.283667
6.830793,-0.295694
6.834701,-0.304308
6.838609,-0.310975
6.842517,-0.316886
6.846424,-0.322156
6.850332,-0.325661
6.854240,-0.325737
6.858148,-0.321327
6.862055,-0.312732
6.865963,-0.301523
6.869871,-0.289751
6.873779,-0.279042
6.877687,-0.270064
6.881594,-0.262491
6.885502,-0.255339
6.889410,-0.247471
6.893318,-0.238121
6.897225,-0.227306
6.901133,-0.215928
6.905041,-0.205462
6.908949,-0.197259
6.912857,-0.191845
6.916764,-0.188655
6.920672,-0.186433
6.924580,-0.184014
6.928488,-0.180943
6.932395,-0.177504
6.936303,-0.174255
6.940211,-0.171497
6.944119,-0.169104
6.948027,-0.166755
6.951934,-0.164317
6.955842,-0.162046
6.959750,-0.160491
6.963658,-0.160167
6.967565,-0.161213
6.971473,-0.163239
6.975381,-0.165455
6.979289,-0.167058
6.983197,-0.167672
6.987104,-0.167564
6.991012,-0.167474
6.994920,-0.168140
6.998828,-0.169808
7.002735,-0.172053
7.006643,-0.174014
7.010551,-0.174900
7.014459,-0.174429
7.018367,-0.172957
7.022274,-0.171226
7.026182,-0.169936
7.030090,-0.169416
7.033998,-0.169585
7.037905,-0.170138
7.041813,-0.170722
7.045721,-0.170914
7.049629,-0.170055
7.053537,-0.167234
7.057444,-0.161653
7.061352,-0.153315
7.065260,-0.143549
7.069168,-0.134745
7.073075,-0.129082
7.076983,-0.126868
7.080891,-0.125734
7.084799,-0.121579
7.088707,-0.110997
7.092614,-0.093671
7.096522,-0.073077
7.100430,-0.054916
7.104338,-0.044228
7.108245,-0.042930
7.112153,-0.049219
7.116061,-0.059052
7.119969,-0.068699
7.123877,-0.076763
7.127784,-0.084473
7.131692,-0.094216
7.135600,-0.107342
7.139508,-0.122768
7.143415,-0.137358
7.147323,-0.147863
7.151231,-0.153094
7.155139,-0.154695
7.159047,-0.155834
7.162954,-0.158681
7.166862,-0.162651
7.170770,-0.164936
7.174678,-0.163109
7.178585,-0.157653
7.182493,-0.152051
7.186401,-0.149915
7.190309,-0.151435
7.194216,-0.152577
7.198124,-0.148562
7.202032,-0.139175
7.205940,-0.130602
7.209848,-0.129854
7.213755,-0.133565
7.217663,-0.119457
7.221571,-0.050477
7.225479,0.104636
7.229386,0.342606
7.233294,0.606808
7.237202,0.795810
7.241110,0.802910
7.245018,0.570350
7.248925,0.128776
7.252833,-0.403533
7.256741,-0.866176
7.260649,-1.125507
7.264556,-1.130911
7.268464,-0.929153
7.272372,-0.631561
7.276280,-0.355220
7.280188,-0.171767
7.284095,-0.089086
7.288003,-0.069028
7.291911,-0.063436
7.295819,-0.043911
7.299726,-0.010008
7.303634,0.022653
7.307542,0.040692
7.311450,0.043533
7.315358,0.041108
7.319265,0.043987
7.323173,0.055345
7.327081,0.070510
7.330989,0.082702
7.334896,0.089112
7.338804,0.092494
7.342712,0.097951
7.346620,0.108432
7.350528,0.122786
7.354435,0.137467
7.358343,0.149896
7.362251,0.160473
7.366159,0.171840
7.370066,0.186455
7.373974,0.204696
7.377882,0.224906
7.381790,0.244961
7.385698,0.263855
7.389605,0.282082
7.393513,0.300806
7.397421,0.320785
7.401329,0.341957
7.405236,0.363789
7.409144,0.385822
7.413052,0.407799
7.416960,0.429358
7.420868,0.449711
7.424775,0.467716
7.428683,0.482277
7.432591,0.492693
7.436499,0.498698
7.440406,0.500269
7.444314,0.497492
7.448222,0.490564
7.452130,0.479794
7.456038,0.465455
7.459945,0.447524
7.463853,0.425546
7.467761,0.398785
7.471669,0.366589
7.475576,0.328743
7.479484,0.285620
7.483392,0.238100
7.487300,0.187387
7.491208,0.134851
7.495115,0.081932
7.499023,0.030061
7.502931,-0.019462
7.506839,-0.065616
7.510746,-0.107759
7.514654,-0.145614
7.518562,-0.179149
7.522470,-0.208408
7.526377,-0.233382
7.530285,-0.253969
7.534193,-0.270082
7.538101,-0.281904
7.542009,-0.290118
7.545916,-0.295897
7.549824,-0.300460
7.553732,-0.304427
7.557640,-0.307480
7.561547,-0.308714
7.565455,-0.307491
7.569363,-0.304111
7.573271,-0.299717
7.577179,-0.295495
7.581086,-0.291849
7.584994,-0.288193
7.588902,-0.283495
7.592810,-0.277102
7.596717,-0.269227
7.600625,-0.260818
7.604533,-0.252981
7.608441,-0.246370
7.612349,-0.240922
7.616256,-0.236043
7.620164,-0.231075
7.624072,-0.225727
7.627980,-0.220245
7.631887,-0.215229
7.635795,-0.211257
7.639703,-0.208526
7.643611,-0.206727
7.647519,-0.205244
7.651426,-0.203529
7.655334,-0.201417
7.659242,-0.199146
7.663150,-0.197106
7.667057,-0.195554
7.670965,-0.194590
7.674873,-0.194384
7.678781,-0.195342
7.682689,-0.197902
7.686596,-0.202025
7.690504,-0.206860
7.694412,-0.210989
7.698320,-0.213181
7.702227,-0.213120
7.706135,-0.211544
7.710043,-0.209689
7.713951,-0.208468
7.717859,-0.207991
7.721766,-0.207774
7.725674,-0.207374
7.729582,-0.206793
7.733490,-0.206220
7.737397,-0.205309
7.741305,-0.202805
7.745213,-0.197109
7.749121,-0.187572
7.753029,-0.175492
7.756936,-0.163844
7.760844,-0.155667
7.764752,-0.152116
7.768660,-0.151520
7.772567,-0.150226
7.776475,-0.144773
7.780383,-0.134001
7.784291,-0.119753
7.788199,-0.105731
7.792106,-0.095407
7.796014,-0.090439
7.799922,-0.090496
7.803830,-0.094240
7.807737,-0.100407
7.811645,-0.108216
7.815553,-0.117093
7.819461,-0.126334
7.823369,-0.135193
7.827276,-0.143331
7.831184,-0.151097
7.835092,-0.159163
7.839000,-0.167656
7.842907,-0.175558
7.846815,-0.181142
7.850723,-0.183355
7.854631,-0.183020
7.858538,-0.182484
7.862446,-0.183576
7.866354,-0.185495
7.870262,-0.185015
7.874170,-0.179770
7.878077,-0.172245
7.881985,-0.169916
7.885893,-0.178515
7.889801,-0.190965
7.893708,-0.180528
7.897616,-0.107700
7.901524,0.056754
7.905432,0.302612
7.909340,0.564008
7.913247,0.732933
7.917155,0.703526
7.921063,0.427801
7.924971,-0.048215
7.928878,-0.592068
7.932786,-1.037188
7.936694,-1.254772
7.940602,-1.207733
7.944510,-0.958788
7.948417,-0.630858
7.952325,-0.344331
7.956233,-0.166246
7.960141,-0.095786
7.964048,-0.086728
7.967956,-0.086696
7.971864,-0.067489
7.975772,-0.031591
7.979680,0.002210
7.983587,0.018967
7.987495,0.018553
7.991403,0.012595
7.995311,0.013391
7.999218,0.025012
8.003126,0.042603
8.007034,0.058363
8.010942,0.068101
8.014850,0.073339
8.018757,0.078571
8.022665,0.087081
8.026573,0.098952
8.030481,0.112202
8.034388,0.125247
8.038296,0.138239
8.042204,0.152434
8.046112,0.168619
8.050020,0.186233
8.053927,0.203901
8.057835,0.220735
8.061743,0.237144
8.065651,0.254526
8.069558,0.274163
8.073466,0.296318
8.077374,0.320192
8.081282,0.344664
8.085190,0.369099
8.089097,0.393530
8.093005,0.418111
8.096913,0.442342
8.100821,0.464779
8.104728,0.483480
8.108636,0.496887
8.112544,0.504446
8.116452,0.506556
8.120360,0.503983
8.124267,0.497274
8.128175,0.486547
8.132083,0.471600
8.135991,0.452021
8.139898,0.427182
8.143806,0.396266
8.147714,0.358541
8.151622,0.313809
8.155530,0.262783
8.159437,0.207095
8.163345,0.148944
8.167253,0.090580
8.171161,0.033916
8.175068,-0.019647
8.178976,-0.069227
8.182884,-0.114380
8.186792,-0.154949
8.190699,-0.190866
8.194607,-0.222059
8.198515,-0.248540
8.202423,-0.270590
8.206331,-0.288751
8.210238,-0.303576
8.214146,-0.315354
8.218054,-0.324157
8.221962,-0.330245
8.225869,-0.334442
8.229777,-0.338045
8.233685,-0.342161
8.237593,-0.346934
8.241501,-0.351289
8.245408,-0.353468
8.249316,-0.352102
8.253224,-0.347138
8.257132,-0.340036
8.261039,-0.333039
8.264947,-0.327956
8.268855,-0.325187
8.272763,-0.323616
8.276671,-0.321359
8.280578,-0.316810
8.284486,-0.309359
8.288394,-0.299510
8.292302,-0.288516
8.296209,-0.277824
8.300117,-0.268563
8.304025,-0.261257
8.307933,-0.255803
8.311841,-0.251645
8.315748,-0.248041
8.319656,-0.244344
8.323564,-0.240232
8.327472,-0.235825
8.331379,-0.231604
8.335287,-0.228152
8.339195,-0.225868
8.343103,-0.224791
8.347011,-0.224618
8.350918,-0.224872
8.354826,-0.225110
8.358734,-0.225109
8.362642,-0.224917
8.366549,-0.224779
8.370457,-0.224932
8.374365,-0.225376
8.378273,-0.225767
8.382181,-0.225585
8.386088,-0.224527
8.389996,-0.222870
8.393904,-0.221420
8.397812,-0.220982
8.401719,-0.221703
8.405627,-0.222866
8.409535,-0.223370
8.413443,-0.222503
8.417351,-0.220419
8.421258,-0.217962
8.425166,-0.216048
8.429074,-0.215073
8.432982,-0.214750
8.436889,-0.214463
8.440797,-0.213813
8.444705,-0.212894
8.448613,-0.211974
8.452521,-0.210850
8.456428,-0.208539
8.460336,-0.203821
8.464244,-0.196366
8.468152,-0.187543
8.472059,-0.180043
8.475967,-0.176305
8.479875,-0.176694
8.483783,-0.178687
8.487691,-0.177781
8.491598,-0.169798
8.495506,-0.153334
8.499414,-0.130908
8.503322,-0.108035
8.507229,-0.090695
8.511137,-0.082616
8.515045,-0.083857
8.518953,-0.091306
8.522860,-0.100600
8.526768,-0.108293
8.530676,-0.113187
8.534584,-0.116382
8.538492,-0.120281
8.542399,-0.127183
8.546307,-0.138098
8.550215,-0.152247
8.554123,-0.167404
8.558030,-0.180932
8.561938,-0.190995
8.565846,-0.197215
8.569754,-0.200301
8.573662,-0.201010
8.577569,-0.199443
8.581477,-0.195472
8.585385,-0.189947
8.589293,-0.185236
8.593200,-0.183984
8.597108,-0.186629
8.601016,-0.189981
8.604924,-0.188939
8.608832,-0.180906
8.612739,-0.169208
8.616647,-0.160970
8.620555,-0.158321
8.624463,-0.148059
8.628370,-0.099366
8.632278,0.023047
8.636186,0.232687
8.640094,0.496038
8.644002,0.727483
8.647909,0.815701
8.651817,0.674604
8.655725,0.293828
8.659633,-0.241197
8.663540,-0.775911
8.667448,-1.150431
8.671356,-1.268464
8.675264,-1.134953
8.679172,-0.843526
8.683079,-0.523436
8.686987,-0.277550
8.690895,-0.144756
8.694803,-0.102167
8.698710,-0.097676
8.702618,-0.087879
8.706526,-0.058637
8.710434,-0.021195
8.714342,0.006371
8.718249,0.015939
8.722157,0.013518
8.726065,0.011594
8.729973,0.018527
8.733880,0.033653
8.737788,0.050337
8.741696,0.062687
8.745604,0.069923
8.749512,0.075639
8.753419,0.083806
8.757327,0.095509
8.761235,0.108851
8.765143,0.121341
8.769050,0.132205
8.772958,0.142722
8.776866,0.154758
8.780774,0.169145
8.784682,0.185295
8.788589,0.202138
8.792497,0.219275
8.796405,0.237311
8.800313,0.257213
8.804220,0.279392
8.808128,0.303352
8.812036,0.328099
8.815944,0.352854
8.819852,0.377419
8.823759,0.401942
8.827667,0.426364
8.831575,0.450037
8.835483,0.471814
8.839390,0.490469
8.843298,0.505076
8.847206,0.515087
8.851114,0.520199
8.855021,0.520242
8.858929,0.515265
8.862837,0.505651
8.866745,0.491975
8.870653,0.474536
8.874560,0.452914
8.878468,0.425982
8.882376,0.392497
8.886284,0.351892
8.890191,0.304746
8.894099,0.252649
8.898007,0.197606
8.901915,0.141370
8.905823,0.085085
8.909730,0.029420
8.913638,-0.024955
8.917546,-0.076911
8.921454,-0.124809
8.925361,-0.166948
8.929269,-0.202240
8.933177,-0.230646
8.937085,-0.253100
8.940993,-0.270953
8.944900,-0.285310
8.948808,-0.296664
8.952716,-0.305065
8.956624,-0.310612
8.960531,-0.313825
8.964439,-0.315577
8.968347,-0.316620
8.972255,-0.317131
8.976163,-0.316632
8.980070,-0.314409
8.983978,-0.310122
8.987886,-0.304182
8.991794,-0.297613
8.995701,-0.291533
8.999609,-0.286622
9.003517,-0.282851
9.007425,-0.279538
9.011333,-0.275685
9.015240,-0.270495
9.019148,-0.263850
9.023056,-0.256434
9.026964,-0.249341
9.030871,-0.243421
9.034779,-0.238838
9.038687,-0.235162
9.042595,-0.231818
9.046503,-0.228484
9.050410,-0.225143
9.054318,-0.221887
9.058226,-0.218741
9.062134,-0.215704
9.066041,-0.212878
9.069949,-0.210510
9.073857,-0.208855
9.077765,-0.207990
9.081673,-0.207754
9.085580,-0.207836
9.089488,-0.207920
9.093396,-0.207782
9.097304,-0.207331
9.101211,-0.206657
9.105119,-0.206059
9.109027,-0.205962
9.112935,-0.206648
9.116843,-0.207980
9.120750,-0.209378
9.124658,-0.210187
9.128566,-0.210214
9.132474,-0.209954
9.136381,-0.210238
9.140289,-0.211509
9.144197,-0.213327
9.148105,-0.214555
9.152013,-0.214174
9.155920,-0.212125
9.159828,-0.209499
9.163736,-0.207798
9.167644,-0.207721
9.171551,-0.208298
9.175459,-0.207148
9.179367,-0.201903
9.183275,-0.192020
9.187182,-0.179704
9.191090,-0.169049
9.194998,-0.163629
9.198906,-0.163958
9.202814,-0.166581
9.206721,-0.165633
9.210629,-0.156129
9.214537,-0.137039
9.218445,-0.112259
9.222352,-0.088835
9.226260,-0.073479
9.230168,-0.069388
9.234076,-0.075088
9.237984,-0.085701
9.241891,-0.095723
9.245799,-0.101761
9.249707,-0.103911
9.253615,-0.105226
9.257522,-0.109657
9.261430,-0.119634
9.265338,-0.134626
9.269246,-0.151461
9.273154,-0.166132
9.277061,-0.175956
9.280969,-0.180770
9.284877,-0.182412
9.288785,-0.182944
9.292692,-0.182956
9.296600,-0.181392
9.300508,-0.177145
9.304416,-0.171052
9.308324,-0.166238
9.312231,-0.165835
9.316139,-0.169610
9.320047,-0.172773
9.323955,-0.169130
9.327862,-0.156955
9.331770,-0.142168
9.335678,-0.133676
9.339586,-0.131457
9.343494,-0.115634
9.347401,-0.048113
9.351309,0.107393
9.355217,0.354121
9.359125,0.638935
9.363032,0.857088
9.366940,0.891584
9.370848,0.671748
9.374756,0.219514
9.378664,-0.346004
9.382571,-0.853539
9.386479,-1.153452
9.390387,-1.181624
9.394295,-0.979919
9.398202,-0.664763
9.402110,-0.364613
9.406018,-0.162420
9.409926,-0.072045
9.413834,-0.054452
9.417741,-0.056094
9.421649,-0.042806
9.425557,-0.011189
9.429465,0.022613
9.433372,0.042764
9.437280,0.046519
9.441188,0.043271
9.445096,0.044571
9.449004,0.055021
9.452911,0.070752
9.456819,0.084799
9.460727,0.093552
9.464635,0.098982
9.468542,0.105838
9.472450,0.117171
9.476358,0.132149
9.480266,0.147482
9.484174,0.160610
9.488081,0.171713
9.491989,0.183127
9.495897,0.197136
9.499805,0.214265
9.503712,0.233343
9.507620,0.252878
9.511528,0.272323
9.515436,0.292242
9.519343,0.313566
9.523251,0.336791
9.527159,0.361806
9.531067,0.388260
9.534975,0.415903
9.538882,0.444487
9.542790,0.473351
9.546698,0.501182
9.550606,0.526313
9.554513,0.547400
9.558421,0.563907
9.562329,0.576005
9.566237,0.583961
9.570145,0.587569
9.574052,0.586130
9.577960,0.579005
9.581868,0.566205
9.585776,0.548426
9.589683,0.526415
9.593591,0.500144
9.597499,0.468509
9.601407,0.429883
9.605315,0.383221
9.609222,0.328976
9.613130,0.269203
9.617038,0.206841
9.620946,0.144667
9.624853,0.084603
9.628761,0.027668
9.632669,-0.025567
9.636577,-0.074465
9.640485,-0.118168
9.644392,-0.155898
9.648300,-0.187426
9.652208,-0.213239
9.656116,-0.234167
9.660023,-0.250798
9.663931,-0.263249
9.667839,-0.271559
9.671747,-0.276314
9.675655,-0.278846
9.679562,-0.280708
9.683470,-0.282780
9.687378,-0.284714
9.691286,-0.285203
9.695193,-0.282913
9.699101,-0.277434
9.703009,-0.269571
9.706917,-0.260830
9.710825,-0.252520
9.714732,-0.245050
9.718640,-0.237840
9.722548,-0.229803
9.726456,-0.220099
9.730363,-0.208723
9.734271,-0.196595
9.738179,-0.185106
9.742087,-0.175388
9.745995,-0.167733
9.749902,-0.161531
9.753810,-0.155744
9.757718,-0.149635
9.761626,-0.143247
9.765533,-0.137355
9.769441,-0.132909
9.773349,-0.130378
9.777257,-0.129432
9.781165,-0.129165
9.785072,-0.128693
9.788980,-0.127695
9.792888,-0.126573
9.796796,-0.126116
9.800703,-0.126899
9.804611,-0.128805
9.808519,-0.131012
9.812427,-0.132503
9.816335,-0.132766
9.820242,-0.132192
9.824150,-0.131842
9.828058,-0.132708
9.831966,-0.135016
9.835873,-0.138085
9.839781,-0.140821
9.843689,-0.142455
9.847597,-0.142966
9.851504,-0.142946
9.855412,-0.143085
9.859320,-0.143691
9.863228,-0.144536
9.867136,-0.145044
9.871043,-0.144597
9.874951,-0.142834
9.878859,-0.139879
9.882767,-0.136376
9.886674,-0.133189
9.890582,-0.130794
9.894490,-0.128744
9.898398,-0.125731
9.902306,-0.120429
9.906213,-0.112627
9.910121,-0.103757
9.914029,-0.096222
9.917937,-0.091785
9.921844,-0.090046
9.925752,-0.088140
9.929660,-0.082062
9.933568,-0.068940
9.937476,-0.048935
9.941383,-0.025545
9.945291,-0.004108
9.949199,0.010681
9.953107,0.016829
9.957014,0.015624
9.960922,0.010562
9.964830,0.005346
9.968738,0.002041
9.972646,0.000259
9.976553,-0.002242
9.980461,-0.007911
9.984369,-0.017696
9.988277,-0.030401
9.992184,-0.043601
9.996092,-0.055412
10.000000,-0.065755
