time,ecg
0.000000,-0.293759
0.003908,-0.311161
0.007816,-0.313937
0.011723,-0.299151
0.015631,-0.279082
0.019539,-0.273975
0.023447,-0.298754
0.027354,-0.352488
0.031262,-0.417555
0.035170,-0.468888
0.039078,-0.487303
0.042986,-0.468799
0.046893,-0.425017
0.050801,-0.375876
0.054709,-0.339593
0.058617,-0.325520
0.062524,-0.332307
0.066432,-0.350617
0.070340,-0.368108
0.074248,-0.374710
0.078156,-0.366816
0.082063,-0.348895
0.085971,-0.331040
0.089879,-0.322492
0.093787,-0.324397
0.097694,-0.327196
0.101602,-0.316189
0.105510,-0.282930
0.109418,-0.234415
0.113326,-0.191895
0.117233,-0.178020
0.121141,-0.200428
0.125049,-0.244093
0.128957,-0.279596
0.132864,-0.282858
0.136772,-0.252456
0.140680,-0.211236
0.144588,-0.190036
0.148496,-0.204995
0.152403,-0.245472
0.156311,-0.282093
0.160219,-0.289251
0.164127,-0.265098
0.168034,-0.233710
0.171942,-0.227514
0.175850,-0.263107
0.179758,-0.328558
0.183665,-0.391495
0.187573,-0.421580
0.191481,-0.410499
0.195389,-0.375170
0.199297,-0.342979
0.203204,-0.331058
0.207112,-0.335146
0.211020,-0.335389
0.214928,-0.313516
0.218835,-0.267868
0.222743,-0.215250
0.226651,-0.178929
0.230559,-0.172289
0.234467,-0.190299
0.238374,-0.214567
0.242282,-0.227622
0.246190,-0.225599
0.250098,-0.220242
0.254005,-0.229198
0.257913,-0.261993
0.261821,-0.311870
0.265729,-0.359180
0.269637,-0.383708
0.273544,-0.377231
0.277452,-0.347797
0.281360,-0.313375
0.285268,-0.289988
0.289175,-0.282794
0.293083,-0.285588
0.296991,-0.287613
0.300899,-0.281502
0.304807,-0.266630
0.308714,-0.247091
0.312622,-0.228307
0.316530,-0.216493
0.320438,-0.220460
0.324345,-0.250304
0.328253,-0.308118
0.332161,-0.373320
0.336069,-0.394103
0.339977,-0.298261
0.343884,-0.026687
0.347792,0.424066
0.351700,0.975941
0.355608,1.482412
0.359515,1.782375
0.363423,1.771261
0.367331,1.451809
0.371239,0.935289
0.375147,0.390953
0.379054,-0.029368
0.382962,-0.251615
0.386870,-0.295617
0.390778,-0.244526
0.394685,-0.190479
0.398593,-0.188588
0.402501,-0.241042
0.406409,-0.312551
0.410317,-0.361234
0.414224,-0.364628
0.418132,-0.328283
0.422040,-0.277119
0.425948,-0.238821
0.429855,-0.229965
0.433763,-0.250879
0.437671,-0.289017
0.441579,-0.326790
0.445487,-0.349204
0.449394,-0.348336
0.453302,-0.323961
0.457210,-0.281487
0.461118,-0.229254
0.465025,-0.176695
0.468933,-0.133404
0.472841,-0.107794
0.476749,-0.104246
0.480657,-0.119534
0.484564,-0.141293
0.488472,-0.151411
0.492380,-0.134355
0.496288,-0.086451
0.500195,-0.020050
0.504103,0.041280
0.508011,0.074791
0.511919,0.070980
0.515826,0.038782
0.519734,0.000357
0.523642,-0.021142
0.527550,-0.013230
0.531458,0.021387
0.535365,0.068804
0.539273,0.112444
0.543181,0.140279
0.547089,0.147434
0.550996,0.134898
0.554904,0.107180
0.558812,0.070759
0.562720,0.032865
0.566628,-0.000640
0.570535,-0.028035
0.574443,-0.052923
0.578351,-0.081702
0.582259,-0.118005
0.586166,-0.158102
0.590074,-0.191605
0.593982,-0.208167
0.597890,-0.205743
0.601798,-0.193861
0.605705,-0.188509
0.609613,-0.201636
0.613521,-0.232768
0.617429,-0.269057
0.621336,-0.293950
0.625244,-0.298308
0.629152,-0.286089
0.633060,-0.270876
0.636968,-0.266129
0.640875,-0.276331
0.644783,-0.294979
0.648691,-0.310197
0.652599,-0.313332
0.656506,-0.304355
0.660414,-0.290773
0.664322,-0.281607
0.668230,-0.281150
0.672138,-0.286675
0.676045,-0.291078
0.679953,-0.288128
0.683861,-0.276665
0.687769,-0.261256
0.691676,-0.249168
0.695584,-0.245695
0.699492,-0.250672
0.703400,-0.258264
0.707308,-0.260274
0.711215,-0.251187
0.715123,-0.232054
0.719031,-0.210793
0.722939,-0.198369
0.726846,-0.202752
0.730754,-0.224044
0.734662,-0.253875
0.738570,-0.279748
0.742478,-0.291916
0.746385,-0.288511
0.750293,-0.275624
0.754201,-0.262468
0.758109,-0.255154
0.762016,-0.253483
0.765924,-0.252694
0.769832,-0.248299
0.773740,-0.239860
0.777648,-0.230704
0.781555,-0.223954
0.785463,-0.218378
0.789371,-0.207821
0.793279,-0.185243
0.797186,-0.148676
0.801094,-0.104545
0.805002,-0.065393
0.808910,-0.042965
0.812818,-0.041009
0.816725,-0.052509
0.820633,-0.063127
0.824541,-0.058687
0.828449,-0.032232
0.832356,0.013107
0.836264,0.066352
0.840172,0.114036
0.844080,0.145518
0.847987,0.155862
0.851895,0.145728
0.855803,0.119251
0.859711,0.081474
0.863619,0.036607
0.867526,-0.012381
0.871434,-0.063044
0.875342,-0.112375
0.879250,-0.156263
0.883157,-0.190131
0.887065,-0.210687
0.890973,-0.217799
0.894881,-0.215131
0.898789,-0.208834
0.902696,-0.204859
0.906604,-0.206495
0.910512,-0.213515
0.914420,-0.223025
0.918327,-0.230915
0.922235,-0.233023
0.926143,-0.226367
0.930051,-0.211525
0.933959,-0.195798
0.937866,-0.193983
0.941774,-0.222351
0.945682,-0.284702
0.949590,-0.356534
0.953497,-0.379507
0.957405,-0.277133
0.961313,0.008478
0.965221,0.474651
0.969129,1.036301
0.973036,1.543752
0.976944,1.839090
0.980852,1.825836
0.984760,1.515122
0.988667,1.021811
0.992575,0.511268
0.996483,0.125332
1.000391,-0.073091
1.004299,-0.110114
1.008206,-0.066560
1.012114,-0.024672
1.016022,-0.027858
1.019930,-0.072260
1.023837,-0.126767
1.027745,-0.162240
1.031653,-0.169907
1.035561,-0.160675
1.039469,-0.151461
1.043376,-0.151545
1.047284,-0.158601
1.051192,-0.164773
1.055100,-0.165755
1.059007,-0.165023
1.062915,-0.170493
1.066823,-0.187084
1.070731,-0.211374
1.074639,-0.232416
1.078546,-0.238094
1.082454,-0.222719
1.086362,-0.190927
1.090270,-0.155359
1.094177,-0.129304
1.098085,-0.118552
1.101993,-0.117457
1.105901,-0.112050
1.109809,-0.088888
1.113716,-0.044409
1.117624,0.011354
1.121532,0.059691
1.125440,0.084184
1.129347,0.080829
1.133255,0.060566
1.137163,0.042388
1.141071,0.041598
1.144979,0.061089
1.148886,0.091166
1.152794,0.117261
1.156702,0.129489
1.160610,0.127395
1.164517,0.117488
1.168425,0.106695
1.172333,0.097374
1.176241,0.087319
1.180148,0.073601
1.184056,0.056060
1.187964,0.037176
1.191872,0.018861
1.195780,-0.000250
1.199687,-0.023812
1.203595,-0.053522
1.207503,-0.085462
1.211411,-0.111109
1.215318,-0.123392
1.219226,-0.123656
1.223134,-0.123702
1.227042,-0.139987
1.230950,-0.182827
1.234857,-0.247689
1.238765,-0.315135
1.242673,-0.360637
1.246581,-0.368891
1.250488,-0.343780
1.254396,-0.307292
1.258304,-0.287339
1.262212,-0.301415
1.266120,-0.346009
1.270027,-0.398382
1.273935,-0.429764
1.277843,-0.421860
1.281751,-0.376624
1.285658,-0.313645
1.289566,-0.257523
1.293474,-0.223714
1.297382,-0.211719
1.301290,-0.208951
1.305197,-0.201425
1.309105,-0.183443
1.313013,-0.160245
1.316921,-0.143015
1.320828,-0.140713
1.324736,-0.154434
1.328644,-0.177330
1.332552,-0.198915
1.336460,-0.210073
1.340367,-0.205695
1.344275,-0.184562
1.348183,-0.148387
1.352091,-0.101865
1.355998,-0.053555
1.359906,-0.015496
1.363814,0.000293
1.367722,-0.012256
1.371630,-0.048370
1.375537,-0.092577
1.379445,-0.125190
1.383353,-0.132109
1.387261,-0.112223
1.391168,-0.077621
1.395076,-0.046244
1.398984,-0.031374
1.402892,-0.034474
1.406800,-0.045760
1.410707,-0.051885
1.414615,-0.045420
1.418523,-0.029659
1.422431,-0.015532
1.426338,-0.012944
1.430246,-0.022835
1.434154,-0.035828
1.438062,-0.038704
1.441970,-0.024255
1.445877,0.002560
1.449785,0.026863
1.453693,0.033287
1.457601,0.016160
1.461508,-0.016741
1.465416,-0.049599
1.469324,-0.069413
1.473232,-0.074671
1.477140,-0.075797
1.481047,-0.087175
1.484955,-0.116502
1.488863,-0.158954
1.492771,-0.200096
1.496678,-0.225266
1.500586,-0.228948
1.504494,-0.217953
1.508402,-0.206667
1.512309,-0.207792
1.516217,-0.224538
1.520125,-0.248887
1.524033,-0.266660
1.527941,-0.266235
1.531848,-0.245850
1.535756,-0.215234
1.539664,-0.190430
1.543572,-0.184659
1.547479,-0.200922
1.551387,-0.231529
1.555295,-0.265310
1.559203,-0.297059
1.563111,-0.330307
1.567018,-0.367830
1.570926,-0.394055
1.574834,-0.363388
1.578742,-0.209724
1.582649,0.119126
1.586557,0.617351
1.590465,1.195752
1.594373,1.698732
1.598281,1.964225
1.602188,1.898901
1.606096,1.526883
1.610004,0.981857
1.613912,0.444507
1.617819,0.059588
1.621727,-0.121514
1.625635,-0.143853
1.629543,-0.102597
1.633451,-0.080630
1.637358,-0.108333
1.641266,-0.164382
1.645174,-0.207762
1.649082,-0.213362
1.652989,-0.186841
1.656897,-0.153518
1.660805,-0.135235
1.664713,-0.134874
1.668621,-0.138712
1.672528,-0.131463
1.676436,-0.110016
1.680344,-0.085136
1.684252,-0.071393
1.688159,-0.074782
1.692067,-0.088182
1.695975,-0.097546
1.699883,-0.093095
1.703791,-0.076448
1.707698,-0.058502
1.711606,-0.050314
1.715514,-0.054335
1.719422,-0.062510
1.723329,-0.062222
1.727237,-0.045303
1.731145,-0.013486
1.735053,0.023391
1.738961,0.054776
1.742868,0.076968
1.746776,0.095491
1.750684,0.120717
1.754592,0.159851
1.758499,0.210806
1.762407,0.262122
1.766315,0.299037
1.770223,0.311823
1.774131,0.301171
1.778038,0.277395
1.781946,0.254156
1.785854,0.240742
1.789762,0.237605
1.793669,0.237525
1.797577,0.231077
1.801485,0.212528
1.805393,0.182443
1.809301,0.145874
1.813208,0.108058
1.817116,0.070989
1.821024,0.033233
1.824932,-0.007265
1.828839,-0.049863
1.832747,-0.090267
1.836655,-0.122898
1.840563,-0.144974
1.844470,-0.159086
1.848378,-0.171942
1.852286,-0.189634
1.856194,-0.212641
1.860102,-0.234492
1.864009,-0.245766
1.867917,-0.241156
1.871825,-0.224607
1.875733,-0.208247
1.879640,-0.204974
1.883548,-0.219350
1.887456,-0.243338
1.891364,-0.260647
1.895272,-0.257515
1.899179,-0.232775
1.903087,-0.199858
1.906995,-0.178570
1.910903,-0.181689
1.914810,-0.205540
1.918718,-0.231440
1.922626,-0.237562
1.926534,-0.213418
1.930442,-0.167122
1.934349,-0.120546
1.938257,-0.095783
1.942165,-0.102032
1.946073,-0.131202
1.949980,-0.164121
1.953888,-0.182216
1.957796,-0.176842
1.961704,-0.151283
1.965612,-0.116090
1.969519,-0.082452
1.973427,-0.058048
1.977335,-0.046490
1.981243,-0.048234
1.985150,-0.060557
1.989058,-0.076686
1.992966,-0.086429
1.996874,-0.080168
2.000782,-0.054898
2.004689,-0.018092
2.008597,0.014456
2.012505,0.026745
2.016413,0.012017
2.020320,-0.022689
2.024228,-0.060203
2.028136,-0.082996
2.032044,-0.082811
2.035952,-0.064151
2.039859,-0.039892
2.043767,-0.022551
2.047675,-0.017229
2.051583,-0.020513
2.055490,-0.025135
2.059398,-0.026271
2.063306,-0.024748
2.067214,-0.025127
2.071122,-0.030553
2.075029,-0.038577
2.078937,-0.041318
2.082845,-0.030209
2.086753,-0.002308
2.090660,0.035990
2.094568,0.070460
2.098476,0.085223
2.102384,0.070294
2.106292,0.026478
2.110199,-0.034941
2.114107,-0.097443
2.118015,-0.146569
2.121923,-0.175532
2.125830,-0.186529
2.129738,-0.187651
2.133646,-0.187524
2.137554,-0.190630
2.141462,-0.195505
2.145369,-0.196412
2.149277,-0.187449
2.153185,-0.166971
2.157093,-0.139883
2.161000,-0.116208
2.164908,-0.106183
2.168816,-0.114415
2.172724,-0.136926
2.176631,-0.163950
2.180539,-0.187703
2.184447,-0.209896
2.188355,-0.241814
2.192263,-0.293291
2.196170,-0.355036
2.200078,-0.386580
2.203986,-0.322879
2.207894,-0.103273
2.211801,0.288641
2.215709,0.796913
2.219617,1.297883
2.223525,1.642376
2.227433,1.718226
2.231340,1.501619
2.235248,1.069315
2.239156,0.564273
2.243064,0.132679
2.246971,-0.134800
2.250879,-0.229026
2.254787,-0.207120
2.258695,-0.150090
2.262603,-0.119564
2.266510,-0.135615
2.270418,-0.181976
2.274326,-0.228621
2.278234,-0.254402
2.282141,-0.256751
2.286049,-0.246461
2.289957,-0.235235
2.293865,-0.226342
2.297773,-0.214216
2.301680,-0.191565
2.305588,-0.157594
2.309496,-0.121032
2.313404,-0.095863
2.317311,-0.092834
2.321219,-0.112454
2.325127,-0.144045
2.329035,-0.171381
2.332943,-0.181383
2.336850,-0.170674
2.340758,-0.146360
2.344666,-0.120946
2.348574,-0.104673
2.352481,-0.099763
2.356389,-0.099613
2.360297,-0.092878
2.364205,-0.069753
2.368113,-0.026981
2.372020,0.030619
2.375928,0.092300
2.379836,0.145754
2.383744,0.181667
2.387651,0.196680
2.391559,0.193825
2.395467,0.180483
2.399375,0.164818
2.403283,0.152289
2.407190,0.143968
2.411098,0.137515
2.415006,0.130085
2.418914,0.121029
2.422821,0.112238
2.426729,0.105720
2.430637,0.100326
2.434545,0.090612
2.438453,0.069501
2.442360,0.033453
2.446268,-0.013552
2.450176,-0.060650
2.454084,-0.095774
2.457991,-0.112997
2.461899,-0.116568
2.465807,-0.118599
2.469715,-0.131743
2.473623,-0.161683
2.477530,-0.204378
2.481438,-0.249552
2.485346,-0.287428
2.489254,-0.313609
2.493161,-0.328879
2.497069,-0.334990
2.500977,-0.330822
2.504885,-0.312842
2.508792,-0.279876
2.512700,-0.238083
2.516608,-0.201252
2.520516,-0.184848
2.524424,-0.197212
2.528331,-0.233842
2.532239,-0.278808
2.536147,-0.312545
2.540055,-0.321252
2.543962,-0.302712
2.547870,-0.266205
2.551778,-0.227778
2.555686,-0.203778
2.559594,-0.205028
2.563501,-0.232702
2.567409,-0.276620
2.571317,-0.317117
2.575225,-0.331516
2.579132,-0.304204
2.583040,-0.236187
2.586948,-0.148301
2.590856,-0.074327
2.594764,-0.045789
2.598671,-0.075954
2.602579,-0.152231
2.606487,-0.241978
2.610395,-0.308884
2.614302,-0.330685
2.618210,-0.308325
2.622118,-0.262046
2.626026,-0.217788
2.629934,-0.192520
2.633841,-0.186809
2.637749,-0.187927
2.641657,-0.180419
2.645565,-0.157132
2.649472,-0.124031
2.653380,-0.096121
2.657288,-0.087303
2.661196,-0.100762
2.665104,-0.126503
2.669011,-0.148198
2.672919,-0.155160
2.676827,-0.150964
2.680735,-0.151639
2.684642,-0.173295
2.688550,-0.217279
2.692458,-0.264289
2.696366,-0.283763
2.700274,-0.253949
2.704181,-0.179030
2.708089,-0.090062
2.711997,-0.027216
2.715905,-0.014588
2.719812,-0.045219
2.723720,-0.087394
2.727628,-0.107902
2.731536,-0.095197
2.735444,-0.065224
2.739351,-0.045859
2.743259,-0.052691
2.747167,-0.076130
2.751075,-0.091207
2.754982,-0.082908
2.758890,-0.065711
2.762798,-0.077911
2.766706,-0.149533
2.770614,-0.264542
2.774521,-0.347122
2.778429,-0.289739
2.782337,-0.013692
2.786245,0.471565
2.790152,1.048796
2.794060,1.531604
2.797968,1.746173
2.801876,1.614143
2.805784,1.191374
2.809691,0.640774
2.813599,0.153652
2.817507,-0.137885
2.821415,-0.211649
2.825322,-0.145923
2.829230,-0.060954
2.833138,-0.048143
2.837046,-0.126571
2.840953,-0.246728
2.844861,-0.332567
2.848769,-0.332586
2.852677,-0.249402
2.856585,-0.133604
2.860492,-0.050039
2.864400,-0.039541
2.868308,-0.098726
2.872216,-0.187179
2.876123,-0.254371
2.880031,-0.268368
2.883939,-0.229806
2.887847,-0.165409
2.891755,-0.107901
2.895662,-0.076030
2.899570,-0.066300
2.903478,-0.059404
2.907386,-0.035352
2.911293,0.012995
2.915201,0.075929
2.919109,0.133749
2.923017,0.169164
2.926925,0.177124
2.930832,0.166384
2.934740,0.152763
2.938648,0.149360
2.942556,0.160230
2.946463,0.180967
2.950371,0.204528
2.954279,0.227358
2.958187,0.251347
2.962095,0.280644
2.966002,0.316188
2.969910,0.352310
2.973818,0.378264
2.977726,0.384134
2.981633,0.367568
2.985541,0.336969
2.989449,0.308573
2.993357,0.298303
2.997265,0.312468
3.001172,0.342693
3.005080,0.368656
3.008988,0.368127
3.012896,0.329232
3.016803,0.257969
3.020711,0.176034
3.024619,0.109622
3.028527,0.075429
3.032435,0.072178
3.036342,0.082662
3.040250,0.084749
3.044158,0.064247
3.048066,0.021930
3.051973,-0.028579
3.055881,-0.069317
3.059789,-0.086854
3.063697,-0.076790
3.067605,-0.043286
3.071512,0.003822
3.075420,0.051689
3.079328,0.086520
3.083236,0.096464
3.087143,0.076160
3.091051,0.031180
3.094959,-0.021352
3.098867,-0.058706
3.102775,-0.063697
3.106682,-0.035139
3.110590,0.009517
3.114498,0.042637
3.118406,0.042111
3.122313,0.005017
3.126221,-0.049681
3.130129,-0.091817
3.134037,-0.097948
3.137945,-0.065437
3.141852,-0.013841
3.145760,0.027301
3.149668,0.036475
3.153576,0.012608
3.157483,-0.025713
3.161391,-0.053150
3.165299,-0.053947
3.169207,-0.031292
3.173114,-0.004420
3.177022,0.003725
3.180930,-0.020013
3.184838,-0.072277
3.188746,-0.135971
3.192653,-0.189321
3.196561,-0.215300
3.200469,-0.206979
3.204377,-0.167893
3.208284,-0.109235
3.212192,-0.046069
3.216100,0.006293
3.220008,0.035608
3.223916,0.035547
3.227823,0.007257
3.231731,-0.041330
3.235639,-0.098475
3.239547,-0.152481
3.243454,-0.194416
3.247362,-0.218740
3.251270,-0.222646
3.255178,-0.205793
3.259086,-0.171111
3.262993,-0.125423
3.266901,-0.077994
3.270809,-0.036702
3.274717,-0.004198
3.278624,0.022456
3.282532,0.047374
3.286440,0.069503
3.290348,0.079829
3.294256,0.065887
3.298163,0.021712
3.302071,-0.043731
3.305979,-0.106901
3.309887,-0.140532
3.313794,-0.129181
3.317702,-0.079621
3.321610,-0.018783
3.325518,0.020350
3.329426,0.016902
3.333333,-0.026251
3.337241,-0.084071
3.341149,-0.123188
3.345057,-0.120262
3.348964,-0.074891
3.352872,-0.010156
3.356780,0.039626
3.360688,0.047532
3.364596,0.008817
3.368503,-0.056999
3.372411,-0.118795
3.376319,-0.154132
3.380227,-0.163715
3.384134,-0.168383
3.388042,-0.187594
3.391950,-0.212349
3.395858,-0.193077
3.399766,-0.057023
3.403673,0.248615
3.407581,0.711226
3.411489,1.235374
3.415397,1.670889
3.419304,1.877150
3.423212,1.790251
3.427120,1.454982
3.431028,1.002514
3.434936,0.586284
3.438843,0.312499
3.442751,0.202817
3.446659,0.205029
3.450567,0.238225
3.454474,0.241200
3.458382,0.196660
3.462290,0.123856
3.466198,0.053004
3.470106,0.002633
3.474013,-0.026783
3.477921,-0.044276
3.481829,-0.056270
3.485737,-0.061413
3.489644,-0.054482
3.493552,-0.033561
3.497460,-0.003356
3.501368,0.027696
3.505275,0.053095
3.509183,0.071602
3.513091,0.086074
3.516999,0.099871
3.520907,0.114433
3.524814,0.129616
3.528722,0.145308
3.532630,0.161831
3.536538,0.178474
3.540445,0.192090
3.544353,0.198236
3.548261,0.195073
3.552169,0.187140
3.556077,0.185302
3.559984,0.201614
3.563892,0.241965
3.567800,0.301561
3.571708,0.366654
3.575615,0.421421
3.579523,0.455312
3.583431,0.466395
3.587339,0.459856
3.591247,0.444406
3.595154,0.429791
3.599062,0.425959
3.602970,0.441680
3.606878,0.480631
3.610785,0.536313
3.614693,0.590464
3.618601,0.619040
3.622509,0.604577
3.626417,0.547593
3.630324,0.468175
3.634232,0.394771
3.638140,0.346703
3.642048,0.322664
3.645955,0.304047
3.649863,0.271129
3.653771,0.220066
3.657679,0.167439
3.661587,0.138210
3.665494,0.145892
3.669402,0.180307
3.673310,0.213113
3.677218,0.217678
3.681125,0.188436
3.685033,0.144693
3.688941,0.115678
3.692849,0.118242
3.696757,0.144554
3.700664,0.169448
3.704572,0.171603
3.708480,0.151653
3.712388,0.132386
3.716295,0.140136
3.720203,0.181590
3.724111,0.234469
3.728019,0.260553
3.731927,0.232434
3.735834,0.154542
3.739742,0.062580
3.743650,0.001094
3.747558,-0.005109
3.751465,0.034406
3.755373,0.084814
3.759281,0.111487
3.763189,0.103120
3.767097,0.076560
3.771004,0.061491
3.774912,0.077549
3.778820,0.120761
3.782728,0.167932
3.786635,0.193952
3.790543,0.188407
3.794451,0.160104
3.798359,0.128254
3.802267,0.108594
3.806174,0.104871
3.810082,0.110274
3.813990,0.115418
3.817898,0.115563
3.821805,0.112167
3.825713,0.109428
3.829621,0.110050
3.833529,0.113745
3.837436,0.118491
3.841344,0.122117
3.845252,0.122495
3.849160,0.117158
3.853068,0.104396
3.856975,0.086156
3.860883,0.070115
3.864791,0.067465
3.868699,0.085973
3.872606,0.122583
3.876514,0.161868
3.880422,0.183368
3.884330,0.174084
3.888238,0.137518
3.892145,0.092027
3.896053,0.058702
3.899961,0.047026
3.903869,0.048904
3.907776,0.045914
3.911684,0.024749
3.915592,-0.010647
3.919500,-0.039785
3.923408,-0.039448
3.927315,-0.001140
3.931223,0.060312
3.935131,0.113604
3.939039,0.129201
3.942946,0.097158
3.946854,0.032921
3.950762,-0.032465
3.954670,-0.071231
3.958578,-0.074713
3.962485,-0.056277
3.966393,-0.039946
3.970301,-0.042564
3.974209,-0.061629
3.978116,-0.077622
3.982024,-0.070228
3.985932,-0.037852
3.989840,-0.005425
3.993748,-0.010832
3.997655,-0.073978
4.001563,-0.166873
4.005471,-0.208145
4.009379,-0.094725
4.013286,0.239373
4.017194,0.768815
4.021102,1.363495
4.025010,1.832970
4.028918,2.011865
4.032825,1.841421
4.036733,1.400191
4.040641,0.864420
4.044549,0.419857
4.048456,0.175183
4.052364,0.124501
4.056272,0.174661
4.060180,0.214010
4.064088,0.177807
4.067995,0.073740
4.071903,-0.039743
4.075811,-0.100406
4.079719,-0.081748
4.083626,-0.003449
4.087534,0.087027
4.091442,0.144586
4.095350,0.148786
4.099258,0.108192
4.103165,0.049330
4.107073,0.000094
4.110981,-0.022921
4.114889,-0.018623
4.118796,0.002134
4.122704,0.024215
4.126612,0.035834
4.130520,0.033050
4.134428,0.019942
4.138335,0.005326
4.142243,-0.001581
4.146151,0.005820
4.150059,0.030670
4.153966,0.072951
4.157874,0.129366
4.161782,0.192554
4.165690,0.251261
4.169597,0.293244
4.173505,0.310544
4.177413,0.304008
4.181321,0.283397
4.185229,0.262190
4.189136,0.250248
4.193044,0.249445
4.196952,0.255258
4.200860,0.262616
4.204767,0.270840
4.208675,0.283430
4.212583,0.303132
4.216491,0.327108
4.220399,0.347161
4.224306,0.355465
4.228214,0.350911
4.232122,0.339987
4.236030,0.330419
4.239937,0.322272
4.243845,0.304362
4.247753,0.260455
4.251661,0.182096
4.255569,0.078877
4.259476,-0.022464
4.263384,-0.091364
4.267292,-0.111441
4.271200,-0.091302
4.275107,-0.060279
4.279015,-0.050855
4.282923,-0.078406
4.286831,-0.131115
4.290739,-0.176846
4.294646,-0.183200
4.298554,-0.138563
4.302462,-0.061039
4.306370,0.010594
4.310277,0.038761
4.314185,0.008691
4.318093,-0.063328
4.322001,-0.139971
4.325909,-0.184891
4.329816,-0.183110
4.333724,-0.147424
4.337632,-0.107533
4.341540,-0.089669
4.345447,-0.100336
4.349355,-0.124505
4.353263,-0.138507
4.357171,-0.127836
4.361079,-0.097134
4.364986,-0.065691
4.368894,-0.052438
4.372802,-0.061880
4.376710,-0.081290
4.380617,-0.090863
4.384525,-0.078961
4.388433,-0.051049
4.392341,-0.025944
4.396249,-0.022426
4.400156,-0.046085
4.404064,-0.085619
4.407972,-0.120642
4.411880,-0.134929
4.415787,-0.125805
4.419695,-0.103954
4.423603,-0.084958
4.427511,-0.079187
4.431419,-0.086695
4.435326,-0.099381
4.439234,-0.107652
4.443142,-0.106576
4.447050,-0.097889
4.450957,-0.087496
4.454865,-0.080791
4.458773,-0.078938
4.462681,-0.078069
4.466589,-0.071448
4.470496,-0.053168
4.474404,-0.021418
4.478312,0.020201
4.482220,0.063956
4.486127,0.101349
4.490035,0.126951
4.493943,0.140646
4.497851,0.146948
4.501758,0.151735
4.505666,0.158344
4.509574,0.165412
4.513482,0.167791
4.517390,0.160059
4.521297,0.140625
4.525205,0.114107
4.529113,0.090495
4.533021,0.081192
4.536928,0.093619
4.540836,0.126926
4.544744,0.171152
4.548652,0.210674
4.552560,0.230672
4.556467,0.223628
4.560375,0.192626
4.564283,0.149828
4.568191,0.110976
4.572098,0.088722
4.576006,0.087676
4.579914,0.102547
4.583822,0.119146
4.587730,0.117861
4.591637,0.080272
4.595545,-0.000400
4.599453,-0.107143
4.603361,-0.192169
4.607268,-0.184198
4.611176,-0.014499
4.615084,0.345219
4.618992,0.851765
4.622900,1.387631
4.626807,1.796318
4.630715,1.944543
4.634623,1.781802
4.638531,1.365190
4.642438,0.834321
4.646346,0.348468
4.650254,0.019043
4.654162,-0.127904
4.658070,-0.143119
4.661977,-0.110218
4.665885,-0.095400
4.669793,-0.119146
4.673701,-0.161074
4.677608,-0.187644
4.681516,-0.180610
4.685424,-0.147888
4.689332,-0.113335
4.693240,-0.096509
4.697147,-0.098506
4.701055,-0.103402
4.704963,-0.092586
4.708871,-0.060380
4.712778,-0.019395
4.716686,0.007812
4.720594,0.004338
4.724502,-0.029331
4.728410,-0.075303
4.732317,-0.109362
4.736225,-0.115194
4.740133,-0.092396
4.744041,-0.053926
4.747948,-0.016000
4.751856,0.011992
4.755764,0.031154
4.759672,0.049234
4.763580,0.073482
4.767487,0.105964
4.771395,0.144158
4.775303,0.184970
4.779211,0.227776
4.783118,0.273486
4.787026,0.320525
4.790934,0.361711
4.794842,0.385606
4.798750,0.382476
4.802657,0.351130
4.806565,0.301690
4.810473,0.251749
4.814381,0.217763
4.818288,0.206851
4.822196,0.213981
4.826104,0.226022
4.830012,0.229790
4.833919,0.218878
4.837827,0.195350
4.841735,0.166091
4.845643,0.137130
4.849551,0.110188
4.853458,0.083465
4.857366,0.055216
4.861274,0.026569
4.865182,0.000959
4.869089,-0.019358
4.872997,-0.036519
4.876905,-0.056756
4.880813,-0.086144
4.884721,-0.125478
4.888628,-0.168505
4.892536,-0.205411
4.896444,-0.229281
4.900352,-0.240530
4.904259,-0.245510
4.908167,-0.249990
4.912075,-0.252661
4.915983,-0.244481
4.919891,-0.215494
4.923798,-0.164716
4.927706,-0.105439
4.931614,-0.060829
4.935522,-0.051495
4.939429,-0.082925
4.943337,-0.141432
4.947245,-0.201769
4.951153,-0.241552
4.955061,-0.253147
4.958968,-0.245746
4.962876,-0.237396
4.966784,-0.243169
4.970692,-0.267203
4.974599,-0.302405
4.978507,-0.336074
4.982415,-0.356456
4.986323,-0.356389
4.990231,-0.333638
4.994138,-0.290227
4.998046,-0.232729
5.001954,-0.172950
5.005862,-0.126563
5.009769,-0.108184
5.013677,-0.124572
5.017585,-0.170210
5.021493,-0.228816
5.025401,-0.280642
5.029308,-0.311386
5.033216,-0.317445
5.037124,-0.304863
5.041032,-0.283566
5.044939,-0.261207
5.048847,-0.240455
5.052755,-0.220575
5.056663,-0.201109
5.060571,-0.184390
5.064478,-0.174918
5.068386,-0.176154
5.072294,-0.187295
5.076202,-0.202677
5.080109,-0.214727
5.084017,-0.218768
5.087925,-0.216345
5.091833,-0.214427
5.095741,-0.220637
5.099648,-0.237663
5.103556,-0.260932
5.107464,-0.281512
5.111372,-0.292313
5.115279,-0.292891
5.119187,-0.288799
5.123095,-0.285648
5.127003,-0.282888
5.130911,-0.273673
5.134818,-0.252811
5.138726,-0.227076
5.142634,-0.217346
5.146542,-0.245406
5.150449,-0.309749
5.154357,-0.366604
5.158265,-0.334960
5.162173,-0.132413
5.166081,0.272364
5.169988,0.821123
5.173896,1.370441
5.177804,1.745772
5.181712,1.821098
5.185619,1.580971
5.189527,1.128497
5.193435,0.633303
5.197343,0.249006
5.201250,0.047078
5.205158,0.002000
5.209066,0.029549
5.212974,0.048274
5.216882,0.024190
5.220789,-0.024863
5.224697,-0.059423
5.228605,-0.055988
5.232513,-0.024724
5.236420,0.001608
5.240328,-0.005229
5.244236,-0.047918
5.248144,-0.103175
5.252052,-0.139693
5.255959,-0.139497
5.259867,-0.107505
5.263775,-0.064611
5.267683,-0.031615
5.271590,-0.016242
5.275498,-0.011071
5.279406,-0.001386
5.283314,0.024259
5.287222,0.067916
5.291129,0.122919
5.295037,0.178764
5.298945,0.226052
5.302853,0.259111
5.306760,0.276648
5.310668,0.281839
5.314576,0.282377
5.318484,0.289514
5.322392,0.314856
5.326299,0.365044
5.330207,0.436642
5.334115,0.514772
5.338023,0.577816
5.341930,0.607141
5.345838,0.597081
5.349746,0.559075
5.353654,0.516471
5.357562,0.491949
5.361469,0.494580
5.365377,0.514504
5.369285,0.528929
5.373193,0.516091
5.377100,0.468554
5.381008,0.397482
5.384916,0.325371
5.388824,0.272308
5.392732,0.244887
5.396639,0.234638
5.400547,0.225843
5.404455,0.206302
5.408363,0.173400
5.412270,0.132366
5.416178,0.089775
5.420086,0.048375
5.423994,0.007008
5.427902,-0.035535
5.431809,-0.077172
5.435717,-0.113043
5.439625,-0.139197
5.443533,-0.155683
5.447440,-0.165921
5.451348,-0.172867
5.455256,-0.175696
5.459164,-0.170497
5.463072,-0.154837
5.466979,-0.132198
5.470887,-0.111844
5.474795,-0.103274
5.478703,-0.109236
5.482610,-0.123029
5.486518,-0.132884
5.490426,-0.130647
5.494334,-0.118335
5.498242,-0.107416
5.502149,-0.110943
5.506057,-0.134033
5.509965,-0.169383
5.513873,-0.200919
5.517780,-0.213010
5.521688,-0.199249
5.525596,-0.165620
5.529504,-0.126898
5.533411,-0.099023
5.537319,-0.091758
5.541227,-0.104955
5.545135,-0.129563
5.549043,-0.152505
5.552950,-0.163127
5.556858,-0.158260
5.560766,-0.143306
5.564674,-0.128394
5.568581,-0.121430
5.572489,-0.122144
5.576397,-0.121357
5.580305,-0.106655
5.584213,-0.071175
5.588120,-0.019404
5.592028,0.034503
5.595936,0.075198
5.599844,0.095538
5.603751,0.100089
5.607659,0.100250
5.611567,0.104917
5.615475,0.114154
5.619383,0.120869
5.623290,0.118878
5.627198,0.110240
5.631106,0.105135
5.635014,0.113755
5.638921,0.136738
5.642829,0.162621
5.646737,0.175499
5.650645,0.167550
5.654553,0.146246
5.658460,0.129420
5.662368,0.130795
5.666276,0.146898
5.670184,0.156559
5.674091,0.135271
5.677999,0.074800
5.681907,-0.007213
5.685815,-0.077060
5.689723,-0.109318
5.693630,-0.108367
5.697538,-0.108851
5.701446,-0.150054
5.705354,-0.238278
5.709261,-0.323333
5.713169,-0.310303
5.717077,-0.107079
5.720985,0.316149
5.724893,0.890985
5.728800,1.464066
5.732708,1.857753
5.736616,1.948396
5.740524,1.720924
5.744431,1.271270
5.748339,0.757306
5.752247,0.326655
5.756155,0.059655
5.760063,-0.046567
5.763970,-0.052397
5.767878,-0.030015
5.771786,-0.025772
5.775694,-0.048128
5.779601,-0.080120
5.783509,-0.101583
5.787417,-0.104741
5.791325,-0.095701
5.795233,-0.085666
5.799140,-0.081379
5.803048,-0.081907
5.806956,-0.082152
5.810864,-0.078291
5.814771,-0.070277
5.818679,-0.060266
5.822587,-0.049589
5.826495,-0.037587
5.830403,-0.023189
5.834310,-0.007195
5.838218,0.007477
5.842126,0.018306
5.846034,0.026314
5.849941,0.036720
5.853849,0.055835
5.857757,0.086215
5.861665,0.123855
5.865572,0.159936
5.869480,0.186179
5.873388,0.200085
5.877296,0.206382
5.881204,0.213727
5.885111,0.229066
5.889019,0.253551
5.892927,0.282637
5.896835,0.309946
5.900742,0.331908
5.904650,0.349822
5.908558,0.367974
5.912466,0.389340
5.916374,0.412085
5.920281,0.429504
5.924189,0.433608
5.928097,0.420014
5.932005,0.390808
5.935912,0.353294
5.939820,0.315307
5.943728,0.280227
5.947636,0.245283
5.951544,0.204562
5.955451,0.154739
5.959359,0.099345
5.963267,0.048178
5.967175,0.011835
5.971082,-0.005058
5.974990,-0.007212
5.978898,-0.006094
5.982806,-0.013021
5.986714,-0.032604
5.990621,-0.061066
5.994529,-0.090521
5.998437,-0.115944
6.002345,-0.139544
6.006252,-0.169116
6.010160,-0.211438
6.014068,-0.265585
6.017976,-0.321281
6.021884,-0.363912
6.025791,-0.382980
6.029699,-0.378240
6.033607,-0.359253
6.037515,-0.338770
6.041422,-0.324690
6.045330,-0.316261
6.049238,-0.306907
6.053146,-0.291150
6.057054,-0.270249
6.060961,-0.252349
6.064869,-0.247214
6.068777,-0.259528
6.072685,-0.285527
6.076592,-0.315097
6.080500,-0.337545
6.084408,-0.347051
6.088316,-0.344519
6.092224,-0.335279
6.096131,-0.324729
6.100039,-0.314846
6.103947,-0.303402
6.107855,-0.285908
6.111762,-0.258848
6.115670,-0.222330
6.119578,-0.180743
6.123486,-0.140997
6.127394,-0.109096
6.131301,-0.086812
6.135209,-0.070463
6.139117,-0.052954
6.143025,-0.028192
6.146932,0.004809
6.150840,0.041133
6.154748,0.073380
6.158656,0.097072
6.162564,0.113865
6.166471,0.129560
6.170379,0.147788
6.174287,0.164151
6.178195,0.166285
6.182102,0.141440
6.186010,0.087188
6.189918,0.017266
6.193826,-0.043250
6.197733,-0.072069
6.201641,-0.064434
6.205549,-0.038070
6.209457,-0.023600
6.213365,-0.045631
6.217272,-0.106713
6.221180,-0.185204
6.225088,-0.248784
6.228996,-0.274563
6.232903,-0.262091
6.236811,-0.230794
6.240719,-0.204640
6.244627,-0.195903
6.248535,-0.200117
6.252442,-0.205236
6.256350,-0.206370
6.260258,-0.212194
6.264166,-0.234999
6.268073,-0.269781
6.271981,-0.278968
6.275889,-0.199090
6.279797,0.027539
6.283705,0.411227
6.287612,0.889140
6.291520,1.335710
6.295428,1.609882
6.299336,1.617408
6.303243,1.355488
6.307151,0.915239
6.311059,0.440367
6.314967,0.064283
6.318875,-0.141734
6.322782,-0.185211
6.326690,-0.131034
6.330598,-0.059077
6.334506,-0.025717
6.338413,-0.046780
6.342321,-0.104157
6.346229,-0.165706
6.350137,-0.204648
6.354045,-0.209848
6.357952,-0.186149
6.361860,-0.148655
6.365768,-0.115071
6.369676,-0.098480
6.373583,-0.102028
6.377491,-0.117357
6.381399,-0.128415
6.385307,-0.119927
6.389215,-0.086511
6.393122,-0.036783
6.397030,0.010911
6.400938,0.039287
6.404846,0.042864
6.408753,0.031512
6.412661,0.024098
6.416569,0.036182
6.420477,0.069839
6.424385,0.112376
6.428292,0.144768
6.432200,0.154026
6.436108,0.141262
6.440016,0.120358
6.443923,0.108722
6.447831,0.116803
6.451739,0.143360
6.455647,0.178882
6.459555,0.213690
6.463462,0.244275
6.467370,0.273389
6.471278,0.304534
6.475186,0.335863
6.479093,0.358818
6.483001,0.362949
6.486909,0.343434
6.490817,0.305440
6.494725,0.261678
6.498632,0.224551
6.502540,0.198374
6.506448,0.177199
6.510356,0.149672
6.514263,0.107407
6.518171,0.051045
6.522079,-0.009895
6.525987,-0.062800
6.529894,-0.099111
6.533802,-0.118133
6.537710,-0.125588
6.541618,-0.128809
6.545526,-0.132364
6.549433,-0.136954
6.553341,-0.141566
6.557249,-0.146442
6.561157,-0.154170
6.565064,-0.168030
6.568972,-0.189108
6.572880,-0.214666
6.576788,-0.239227
6.580696,-0.257629
6.584603,-0.267847
6.588511,-0.271639
6.592419,-0.272750
6.596327,-0.274174
6.600234,-0.276442
6.604142,-0.277900
6.608050,-0.276355
6.611958,-0.270593
6.615866,-0.260638
6.619773,-0.246864
6.623681,-0.229040
6.627589,-0.206385
6.631497,-0.178701
6.635404,-0.147524
6.639312,-0.115960
6.643220,-0.086856
6.647128,-0.060478
6.651036,-0.033696
6.654943,-0.001846
6.658851,0.037641
6.662759,0.082519
6.666667,0.126359
6.670574,0.162564
6.674482,0.188960
6.678390,0.209280
6.682298,0.230031
6.686206,0.254861
6.690113,0.280809
6.694021,0.299685
6.697929,0.303911
6.701837,0.292523
6.705744,0.272535
6.709652,0.254180
6.713560,0.243174
6.717468,0.235629
6.721376,0.219675
6.725283,0.183191
6.729191,0.122615
6.733099,0.046855
6.737007,-0.026516
6.740914,-0.080430
6.744822,-0.107119
6.748730,-0.111403
6.752638,-0.107057
6.756546,-0.108988
6.760453,-0.125708
6.764361,-0.155687
6.768269,-0.188707
6.772177,-0.211149
6.776084,-0.212904
6.779992,-0.193142
6.783900,-0.162238
6.787808,-0.138071
6.791716,-0.137212
6.795623,-0.164860
6.799531,-0.209772
6.803439,-0.249241
6.807347,-0.263482
6.811254,-0.251428
6.815162,-0.236199
6.819070,-0.252595
6.822978,-0.320133
6.826886,-0.416872
6.830793,-0.473217
6.834701,-0.396351
6.838609,-0.118161
6.842517,0.357337
6.846424,0.935594
6.850332,1.457961
6.854240,1.764657
6.858148,1.764152
6.862055,1.473112
6.865963,1.005781
6.869871,0.519006
6.873779,0.142822
6.877687,-0.067381
6.881594,-0.135782
6.885502,-0.132428
6.889410,-0.125618
6.893318,-0.148579
6.897225,-0.195148
6.901133,-0.239286
6.905041,-0.260304
6.908949,-0.256610
6.912857,-0.242388
6.916764,-0.234198
6.920672,-0.239371
6.924580,-0.253694
6.928488,-0.267391
6.932395,-0.272805
6.936303,-0.267947
6.940211,-0.254922
6.944119,-0.236501
6.948027,-0.214450
6.951934,-0.190408
6.955842,-0.167229
6.959750,-0.148527
6.963658,-0.136290
6.967565,-0.128754
6.971473,-0.120824
6.975381,-0.107207
6.979289,-0.086038
6.983197,-0.060300
6.987104,-0.036061
6.991012,-0.018869
6.994920,-0.010657
6.998828,-0.008819
7.002735,-0.007566
7.006643,-0.000642
7.010551,0.015743
7.014459,0.040766
7.018367,0.068615
7.022274,0.090663
7.026182,0.100014
7.030090,0.096383
7.033998,0.087910
7.037905,0.087338
7.041813,0.103465
7.045721,0.132849
7.049629,0.158049
7.053537,0.155328
7.057444,0.108463
7.061352,0.020219
7.065260,-0.086515
7.069168,-0.179772
7.073075,-0.235472
7.076983,-0.249710
7.080891,-0.238694
7.084799,-0.226871
7.088707,-0.231489
7.092614,-0.253702
7.096522,-0.281191
7.100430,-0.299227
7.104338,-0.301848
7.108245,-0.295730
7.112153,-0.295120
7.116061,-0.312333
7.119969,-0.350481
7.123877,-0.402435
7.127784,-0.455193
7.131692,-0.495817
7.135600,-0.515513
7.139508,-0.511034
7.143415,-0.484632
7.147323,-0.443737
7.151231,-0.400072
7.155139,-0.366993
7.159047,-0.354746
7.162954,-0.365478
7.166862,-0.391207
7.170770,-0.416903
7.174678,-0.427666
7.178585,-0.416034
7.182493,-0.385031
7.186401,-0.345318
7.190309,-0.308612
7.194216,-0.281754
7.198124,-0.264848
7.202032,-0.253708
7.205940,-0.243963
7.209848,-0.233597
7.213755,-0.222597
7.217663,-0.210983
7.221571,-0.197665
7.225479,-0.181374
7.229386,-0.162744
7.233294,-0.145204
7.237202,-0.133167
7.241110,-0.128383
7.245018,-0.127311
7.248925,-0.122121
7.252833,-0.105406
7.256741,-0.075686
7.260649,-0.039777
7.264556,-0.010036
7.268464,0.001994
7.272372,-0.008469
7.276280,-0.037589
7.280188,-0.075885
7.284095,-0.113550
7.288003,-0.144479
7.291911,-0.167010
7.295819,-0.182200
7.299726,-0.191990
7.303634,-0.198745
7.307542,-0.205473
7.311450,-0.214891
7.315358,-0.226795
7.319265,-0.235704
7.323173,-0.231990
7.327081,-0.207723
7.330989,-0.164392
7.334896,-0.116658
7.338804,-0.087540
7.342712,-0.095871
7.346620,-0.143214
7.350528,-0.209690
7.354435,-0.263833
7.358343,-0.282391
7.362251,-0.267810
7.366159,-0.249961
7.370066,-0.266894
7.373974,-0.333048
7.377882,-0.414333
7.381790,-0.429589
7.385698,-0.284981
7.389605,0.072088
7.393513,0.608313
7.397421,1.197711
7.401329,1.663498
7.405236,1.852410
7.409144,1.704774
7.413052,1.283021
7.416960,0.742379
7.420868,0.258922
7.424775,-0.046793
7.428683,-0.151319
7.432591,-0.117509
7.436499,-0.043867
7.440406,-0.006992
7.444314,-0.029114
7.448222,-0.083357
7.452130,-0.125468
7.456038,-0.127532
7.459945,-0.093079
7.463853,-0.048635
7.467761,-0.022309
7.471669,-0.025751
7.475576,-0.050125
7.479484,-0.075626
7.483392,-0.085779
7.487300,-0.076834
7.491208,-0.057735
7.495115,-0.042713
7.499023,-0.042224
7.502931,-0.057452
7.506839,-0.080480
7.510746,-0.098936
7.514654,-0.102156
7.518562,-0.085869
7.522470,-0.053513
7.526377,-0.013923
7.530285,0.023269
7.534193,0.052140
7.538101,0.072581
7.542009,0.089042
7.545916,0.106820
7.549824,0.128157
7.553732,0.150489
7.557640,0.167828
7.561547,0.174444
7.565455,0.168666
7.569363,0.154507
7.573271,0.140029
7.577179,0.133080
7.581086,0.136707
7.584994,0.147060
7.588902,0.155520
7.592810,0.154234
7.596717,0.141808
7.600625,0.125194
7.604533,0.115761
7.608441,0.121280
7.612349,0.138802
7.616256,0.153651
7.620164,0.146302
7.624072,0.103670
7.627980,0.027872
7.631887,-0.063433
7.635795,-0.145815
7.639703,-0.200648
7.643611,-0.223758
7.647519,-0.225218
7.651426,-0.221390
7.655334,-0.225100
7.659242,-0.240059
7.663150,-0.261768
7.667057,-0.282481
7.670965,-0.295912
7.674873,-0.299059
7.678781,-0.291656
7.682689,-0.275487
7.686596,-0.254847
7.690504,-0.237175
7.694412,-0.231740
7.698320,-0.245494
7.702227,-0.277985
7.706135,-0.318935
7.710043,-0.351127
7.713951,-0.357892
7.717859,-0.331218
7.721766,-0.275776
7.725674,-0.206630
7.729582,-0.142220
7.733490,-0.096748
7.737397,-0.075742
7.741305,-0.076092
7.745213,-0.089290
7.749121,-0.105534
7.753029,-0.116953
7.756936,-0.119306
7.760844,-0.112282
7.764752,-0.098733
7.768660,-0.083139
7.772567,-0.069723
7.776475,-0.060912
7.780383,-0.056832
7.784291,-0.056064
7.788199,-0.057008
7.792106,-0.058734
7.796014,-0.060657
7.799922,-0.061544
7.803830,-0.059114
7.807737,-0.051130
7.811645,-0.037505
7.815553,-0.021779
7.819461,-0.010466
7.823369,-0.010158
7.827276,-0.023979
7.831184,-0.049636
7.835092,-0.080393
7.839000,-0.108372
7.842907,-0.128055
7.846815,-0.137918
7.850723,-0.139616
7.854631,-0.136025
7.858538,-0.130061
7.862446,-0.124967
7.866354,-0.124884
7.870262,-0.133782
7.874170,-0.152455
7.878077,-0.175820
7.881985,-0.193820
7.885893,-0.196993
7.889801,-0.183692
7.893708,-0.163261
7.897616,-0.151271
7.901524,-0.158695
7.905432,-0.182688
7.909340,-0.207288
7.913247,-0.215915
7.917155,-0.207680
7.921063,-0.203590
7.924971,-0.233137
7.928878,-0.305587
7.932786,-0.384762
7.936694,-0.389414
7.940602,-0.228204
7.944510,0.144921
7.948417,0.686961
7.952325,1.264430
7.956233,1.702476
7.960141,1.862128
7.964048,1.704226
7.967956,1.304608
7.971864,0.813045
7.975772,0.380636
7.979680,0.096484
7.983587,-0.034728
7.987495,-0.069603
7.991403,-0.078829
7.995311,-0.106899
7.999218,-0.158913
8.003126,-0.213956
8.007034,-0.248899
8.010942,-0.254918
8.014850,-0.239057
8.018757,-0.215193
8.022665,-0.194100
8.026573,-0.179385
8.030481,-0.169501
8.034388,-0.161744
8.038296,-0.154592
8.042204,-0.147823
8.046112,-0.142025
8.050020,-0.138594
8.053927,-0.139566
8.057835,-0.146209
8.061743,-0.156838
8.065651,-0.166100
8.069558,-0.167502
8.073466,-0.158045
8.077374,-0.141118
8.081282,-0.124321
8.085190,-0.113024
8.089097,-0.104715
8.093005,-0.089586
8.096913,-0.058173
8.100821,-0.010698
8.104728,0.039692
8.108636,0.073670
8.112544,0.078638
8.116452,0.058542
8.120360,0.032724
8.124267,0.023670
8.128175,0.041875
8.132083,0.078549
8.135991,0.111548
8.139898,0.120378
8.143806,0.099629
8.147714,0.061490
8.151622,0.026081
8.155530,0.007108
8.159437,0.003312
8.163345,0.001381
8.167253,-0.012702
8.171161,-0.042831
8.175068,-0.080370
8.178976,-0.111322
8.182884,-0.127166
8.186792,-0.131351
8.190699,-0.137166
8.194607,-0.159060
8.198515,-0.203653
8.202423,-0.266023
8.206331,-0.332791
8.210238,-0.389241
8.214146,-0.425997
8.218054,-0.441986
8.221962,-0.443001
8.225869,-0.437447
8.229777,-0.431833
8.233685,-0.428201
8.237593,-0.424441
8.241501,-0.416835
8.245408,-0.403150
8.249316,-0.384401
8.253224,-0.364368
8.257132,-0.347296
8.261039,-0.335325
8.264947,-0.327270
8.268855,-0.319483
8.272763,-0.308231
8.276671,-0.292076
8.280578,-0.272757
8.284486,-0.254044
8.288394,-0.239384
8.292302,-0.229905
8.296209,-0.224048
8.300117,-0.218924
8.304025,-0.212407
8.307933,-0.204533
8.311841,-0.197336
8.315748,-0.193239
8.319656,-0.193023
8.323564,-0.194759
8.327472,-0.194560
8.331379,-0.188857
8.335287,-0.176782
8.339195,-0.160851
8.343103,-0.145100
8.347011,-0.131703
8.350918,-0.118563
8.354826,-0.100151
8.358734,-0.071723
8.362642,-0.034271
8.366549,0.003608
8.370457,0.029119
8.374365,0.032496
8.378273,0.013580
8.382181,-0.016833
8.386088,-0.042300
8.389996,-0.049894
8.393904,-0.037768
8.397812,-0.016541
8.401719,-0.003571
8.405627,-0.013389
8.409535,-0.049608
8.413443,-0.102543
8.417351,-0.153646
8.421258,-0.184486
8.425166,-0.185992
8.429074,-0.163531
8.432982,-0.134950
8.436889,-0.121780
8.440797,-0.137373
8.444705,-0.178161
8.448613,-0.223592
8.452521,-0.246074
8.456428,-0.226423
8.460336,-0.166423
8.464244,-0.091120
8.468152,-0.039043
8.472059,-0.045234
8.475967,-0.125344
8.479875,-0.267232
8.483783,-0.431639
8.487691,-0.559798
8.491598,-0.585867
8.495506,-0.454008
8.499414,-0.139568
8.503322,0.330922
8.507229,0.872015
8.511137,1.355030
8.515045,1.648746
8.518953,1.671043
8.522860,1.426327
8.526768,1.006504
8.530676,0.551507
8.534584,0.188442
8.538492,-0.018599
8.542399,-0.082471
8.546307,-0.067127
8.550215,-0.041660
8.554123,-0.043253
8.558030,-0.068424
8.561938,-0.091389
8.565846,-0.091542
8.569754,-0.069773
8.573662,-0.044871
8.577569,-0.036704
8.581477,-0.050820
8.585385,-0.075390
8.589293,-0.090830
8.593200,-0.083456
8.597108,-0.053331
8.601016,-0.012169
8.604924,0.025347
8.608832,0.049893
8.612739,0.060392
8.616647,0.061365
8.620555,0.058312
8.624463,0.054859
8.628370,0.052681
8.632278,0.052606
8.636186,0.054780
8.640094,0.057530
8.644002,0.056518
8.647909,0.046141
8.651817,0.023367
8.655725,-0.008296
8.659633,-0.038018
8.663540,-0.051777
8.667448,-0.039755
8.671356,-0.002636
8.675264,0.047509
8.679172,0.093002
8.683079,0.120006
8.686987,0.126053
8.690895,0.120972
8.694803,0.120436
8.698710,0.135887
8.702618,0.166777
8.706526,0.199715
8.710434,0.215036
8.714342,0.197044
8.718249,0.142193
8.722157,0.060781
8.726065,-0.028411
8.729973,-0.107143
8.733880,-0.165235
8.737788,-0.202860
8.741696,-0.227245
8.745604,-0.246643
8.749512,-0.265410
8.753419,-0.282758
8.757327,-0.295163
8.761235,-0.300269
8.765143,-0.299520
8.769050,-0.297813
8.772958,-0.300469
8.776866,-0.309570
8.780774,-0.322158
8.784682,-0.331690
8.788589,-0.332039
8.792497,-0.321638
8.796405,-0.305064
8.800313,-0.290807
8.804220,-0.286318
8.808128,-0.293264
8.812036,-0.306141
8.815944,-0.315470
8.819852,-0.313953
8.823759,-0.301724
8.827667,-0.287061
8.831575,-0.281610
8.835483,-0.292835
8.839390,-0.318468
8.843298,-0.346695
8.847206,-0.362209
8.851114,-0.354448
8.855021,-0.322963
8.858929,-0.276798
8.862837,-0.228721
8.866745,-0.188344
8.870653,-0.158395
8.874560,-0.135774
8.878468,-0.115605
8.882376,-0.094833
8.886284,-0.073006
8.890191,-0.050572
8.894099,-0.027066
8.898007,-0.001304
8.901915,0.026556
8.905823,0.053368
8.909730,0.074098
8.913638,0.085531
8.917546,0.089591
8.921454,0.092661
8.925361,0.100157
8.929269,0.109868
8.933177,0.109731
8.937085,0.083335
8.940993,0.020822
8.944900,-0.071914
8.948808,-0.172741
8.952716,-0.253204
8.956624,-0.293437
8.960531,-0.292990
8.964439,-0.270795
8.968347,-0.254339
8.972255,-0.264621
8.976163,-0.305601
8.980070,-0.363589
8.983978,-0.416019
8.987886,-0.444183
8.991794,-0.443150
8.995701,-0.424144
8.999609,-0.408399
9.003517,-0.415408
9.007425,-0.451236
9.011333,-0.503441
9.015240,-0.546821
9.019148,-0.558644
9.023056,-0.535343
9.026964,-0.498953
9.030871,-0.485178
9.034779,-0.515893
9.038687,-0.571555
9.042595,-0.584096
9.046503,-0.462272
9.050410,-0.142001
9.054318,0.364613
9.058226,0.952608
9.062134,1.455983
9.066041,1.716727
9.069949,1.656387
9.073857,1.311522
9.077765,0.813668
9.081673,0.325592
9.085580,-0.030512
9.089488,-0.215201
9.093396,-0.266765
9.097304,-0.259843
9.101211,-0.257072
9.105119,-0.281583
9.109027,-0.320226
9.112935,-0.346936
9.116843,-0.346172
9.120750,-0.321761
9.124658,-0.289951
9.128566,-0.266250
9.132474,-0.256987
9.136381,-0.259853
9.140289,-0.269813
9.144197,-0.283748
9.148105,-0.300275
9.152013,-0.316435
9.155920,-0.325778
9.159828,-0.320662
9.163736,-0.297397
9.167644,-0.259980
9.171551,-0.218922
9.175459,-0.185369
9.179367,-0.164308
9.183275,-0.151524
9.187182,-0.136524
9.191090,-0.109663
9.194998,-0.068847
9.198906,-0.021387
9.202814,0.020327
9.206721,0.046620
9.210629,0.056694
9.214537,0.058860
9.218445,0.064322
9.222352,0.078455
9.226260,0.095803
9.230168,0.103120
9.234076,0.089292
9.237984,0.055535
9.241891,0.017914
9.245799,-0.001139
9.249707,0.012176
9.253615,0.051612
9.257522,0.091904
9.261430,0.103193
9.265338,0.070316
9.269246,0.004064
9.273154,-0.064146
9.277061,-0.101971
9.280969,-0.097894
9.284877,-0.070378
9.288785,-0.057446
9.292692,-0.092623
9.296600,-0.182662
9.300508,-0.301748
9.304416,-0.406236
9.308324,-0.460470
9.312231,-0.457043
9.316139,-0.418823
9.320047,-0.382352
9.323955,-0.374335
9.327862,-0.396690
9.331770,-0.428905
9.335678,-0.444393
9.339586,-0.428798
9.343494,-0.388219
9.347401,-0.343336
9.351309,-0.315120
9.355217,-0.312470
9.359125,-0.329379
9.363032,-0.351836
9.366940,-0.368201
9.370848,-0.375571
9.374756,-0.378629
9.378664,-0.383311
9.382571,-0.390839
9.386479,-0.396468
9.390387,-0.393185
9.394295,-0.376941
9.398202,-0.349399
9.402110,-0.316504
9.406018,-0.284477
9.409926,-0.256405
9.413834,-0.231673
9.417741,-0.208052
9.421649,-0.184392
9.425557,-0.161804
9.429465,-0.142759
9.433372,-0.129150
9.437280,-0.120926
9.441188,-0.116131
9.445096,-0.111962
9.449004,-0.105804
9.452911,-0.095586
9.456819,-0.079641
9.460727,-0.056758
9.464635,-0.026867
9.468542,0.007933
9.472450,0.042871
9.476358,0.071251
9.480266,0.086407
9.484174,0.084005
9.488081,0.063543
9.491989,0.028360
9.495897,-0.015754
9.499805,-0.062486
9.503712,-0.106485
9.507620,-0.143881
9.511528,-0.172053
9.515436,-0.189349
9.519343,-0.195249
9.523251,-0.190901
9.527159,-0.179356
9.531067,-0.164876
9.534975,-0.151266
9.538882,-0.140050
9.542790,-0.129837
9.546698,-0.117752
9.550606,-0.102376
9.554513,-0.086039
9.558421,-0.074260
9.562329,-0.072181
9.566237,-0.080776
9.570145,-0.096665
9.574052,-0.116869
9.577960,-0.144810
9.581868,-0.190501
9.585776,-0.260240
9.589683,-0.339395
9.593591,-0.380828
9.597499,-0.313103
9.601407,-0.072724
9.605315,0.352569
9.609222,0.895186
9.613130,1.416881
9.617038,1.759177
9.620946,1.812683
9.624853,1.568285
9.628761,1.120887
9.632669,0.623126
9.636577,0.215404
9.640485,-0.029051
9.644392,-0.117352
9.648300,-0.108908
9.652208,-0.070378
9.656116,-0.042796
9.660023,-0.035515
9.663931,-0.040663
9.667839,-0.050240
9.671747,-0.062156
9.675655,-0.075166
9.679562,-0.082841
9.683470,-0.075673
9.687378,-0.050521
9.691286,-0.017920
9.695193,0.001545
9.699101,-0.008818
9.703009,-0.047912
9.706917,-0.094723
9.710825,-0.120988
9.714732,-0.110020
9.718640,-0.067922
9.722548,-0.018975
9.726456,0.011129
9.730363,0.011875
9.734271,-0.007117
9.738179,-0.024967
9.742087,-0.024494
9.745995,-0.002139
9.749902,0.033146
9.753810,0.069319
9.757718,0.100626
9.761626,0.129915
9.765533,0.163214
9.769441,0.201999
9.773349,0.239796
9.777257,0.265846
9.781165,0.272792
9.785072,0.262390
9.788980,0.244951
9.792888,0.232973
9.796796,0.233501
9.800703,0.244305
9.804611,0.255987
9.808519,0.258090
9.812427,0.244990
9.816335,0.218115
9.820242,0.183846
9.824150,0.149138
9.828058,0.117889
9.831966,0.089974
9.835873,0.062853
9.839781,0.034112
9.843689,0.003120
9.847597,-0.028902
9.851504,-0.059873
9.855412,-0.087852
9.859320,-0.111430
9.863228,-0.129771
9.867136,-0.142815
9.871043,-0.151709
9.874951,-0.158792
9.878859,-0.166577
9.882767,-0.176043
9.886674,-0.185605
9.890582,-0.191998
9.894490,-0.192918
9.898398,-0.189650
9.902306,-0.187478
9.906213,-0.193018
9.910121,-0.209893
9.914029,-0.235717
9.917937,-0.262801
9.921844,-0.282551
9.925752,-0.290733
9.929660,-0.289895
9.933568,-0.287036
9.937476,-0.288130
9.941383,-0.293525
9.945291,-0.297698
9.949199,-0.293517
9.953107,-0.277703
9.957014,-0.253334
9.960922,-0.227573
9.964830,-0.206473
9.968738,-0.190885
9.972646,-0.176491
9.976553,-0.157802
9.980461,-0.132989
9.984369,-0.105918
9.988277,-0.084041
9.992184,-0.073798
9.996092,-0.076654
10.000000,-0.088035
