time,ecg
0.000000,0.016565
0.003908,0.020775
0.007816,0.026432
0.011723,0.034547
0.015631,0.045337
0.019539,0.058163
0.023447,0.071866
0.027354,0.085389
0.031262,0.098293
0.035170,0.110818
0.039078,0.123556
0.042986,0.137039
0.046893,0.151569
0.050801,0.167298
0.054709,0.184348
0.058617,0.202781
0.062524,0.222490
0.066432,0.243233
0.070340,0.264895
0.074248,0.287717
0.078156,0.312121
0.082063,0.338077
0.085971,0.364430
0.089879,0.388883
0.093787,0.408915
0.097694,0.423168
0.101602,0.432315
0.105510,0.438664
0.109418,0.444610
0.113326,0.450921
0.117233,0.456003
0.121141,0.456686
0.125049,0.450029
0.128957,0.434941
0.132864,0.412559
0.136772,0.385222
0.140680,0.354781
0.144588,0.321336
0.148496,0.283208
0.152403,0.238183
0.156311,0.185345
0.160219,0.126400
0.164127,0.065559
0.168034,0.007888
0.171942,-0.042976
0.175850,-0.086328
0.179758,-0.124178
0.183665,-0.159470
0.187573,-0.193910
0.191481,-0.226753
0.195389,-0.255248
0.199297,-0.276436
0.203204,-0.289101
0.207112,-0.294634
0.211020,-0.296306
0.214928,-0.297528
0.218835,-0.300232
0.222743,-0.304313
0.226651,-0.308251
0.230559,-0.310377
0.234467,-0.309950
0.238374,-0.307461
0.242282,-0.304126
0.246190,-0.300978
0.250098,-0.298248
0.254005,-0.295436
0.257913,-0.291932
0.261821,-0.287563
0.265729,-0.282564
0.269637,-0.277066
0.273544,-0.270725
0.277452,-0.262984
0.281360,-0.253813
0.285268,-0.244212
0.289175,-0.235890
0.293083,-0.230196
0.296991,-0.227062
0.300899,-0.224821
0.304807,-0.221150
0.308714,-0.214542
0.312622,-0.205298
0.316530,-0.195366
0.320438,-0.187150
0.324345,-0.182050
0.328253,-0.179632
0.332161,-0.177982
0.336069,-0.175063
0.339977,-0.170273
0.343884,-0.165073
0.347792,-0.162039
0.351700,-0.162820
0.355608,-0.166465
0.359515,-0.169516
0.363423,-0.168075
0.367331,-0.160522
0.371239,-0.148957
0.375147,-0.138206
0.379054,-0.132876
0.382962,-0.134257
0.386870,-0.139090
0.390778,-0.141164
0.394685,-0.134954
0.398593,-0.119120
0.402501,-0.097674
0.406409,-0.078018
0.410317,-0.067053
0.414224,-0.067696
0.418132,-0.077774
0.422040,-0.091743
0.425948,-0.104026
0.429855,-0.111919
0.433763,-0.116427
0.437671,-0.120775
0.441579,-0.127830
0.445487,-0.138246
0.449394,-0.150436
0.453302,-0.162046
0.457210,-0.171573
0.461118,-0.178928
0.465025,-0.184748
0.468933,-0.189320
0.472841,-0.192179
0.476749,-0.192730
0.480657,-0.191242
0.484564,-0.189134
0.488472,-0.188069
0.492380,-0.188484
0.496288,-0.188868
0.500195,-0.186712
0.504103,-0.180703
0.508011,-0.172341
0.511919,-0.164893
0.515826,-0.159158
0.519734,-0.148115
0.523642,-0.114735
0.527550,-0.036846
0.531458,0.100515
0.535365,0.290077
0.539273,0.493228
0.543181,0.644822
0.547089,0.673979
0.550996,0.534191
0.554904,0.229131
0.558812,-0.179831
0.562720,-0.590967
0.566628,-0.898815
0.570535,-1.034037
0.574443,-0.987818
0.578351,-0.809452
0.582259,-0.579477
0.586166,-0.373110
0.590074,-0.232442
0.593982,-0.159315
0.597890,-0.128323
0.601798,-0.108966
0.605705,-0.083223
0.609613,-0.050392
0.613521,-0.020148
0.617429,-0.001433
0.621336,0.004680
0.625244,0.004642
0.629152,0.006836
0.633060,0.015878
0.636968,0.030718
0.640875,0.046934
0.644783,0.060651
0.648691,0.071017
0.652599,0.079880
0.656506,0.089612
0.660414,0.101123
0.664322,0.113530
0.668230,0.125331
0.672138,0.135852
0.676045,0.145779
0.679953,0.156588
0.683861,0.169539
0.687769,0.185027
0.691676,0.202628
0.695584,0.221588
0.699492,0.241317
0.703400,0.261610
0.707308,0.282571
0.711215,0.304435
0.715123,0.327397
0.719031,0.351481
0.722939,0.376380
0.726846,0.401280
0.730754,0.424809
0.734662,0.445258
0.738570,0.461129
0.742478,0.471742
0.746385,0.477518
0.750293,0.479664
0.754201,0.479400
0.758109,0.477218
0.762016,0.472606
0.765924,0.464314
0.769832,0.450876
0.773740,0.431012
0.777648,0.403751
0.781555,0.368422
0.785463,0.324798
0.789371,0.273531
0.793279,0.216626
0.797186,0.157434
0.801094,0.099776
0.805002,0.046529
0.808910,-0.001464
0.812818,-0.045282
0.816725,-0.086588
0.820633,-0.125957
0.824541,-0.162163
0.828449,-0.192957
0.832356,-0.216736
0.836264,-0.233783
0.840172,-0.246152
0.844080,-0.256304
0.847987,-0.265542
0.851895,-0.273415
0.855803,-0.278491
0.859711,-0.279881
0.863619,-0.278302
0.867526,-0.275842
0.871434,-0.274610
0.875342,-0.275342
0.879250,-0.277050
0.883157,-0.277949
0.887065,-0.276867
0.890973,-0.273970
0.894881,-0.270274
0.898789,-0.266428
0.902696,-0.261902
0.906604,-0.255279
0.910512,-0.245455
0.914420,-0.232783
0.918327,-0.219230
0.922235,-0.207374
0.926143,-0.198914
0.930051,-0.193749
0.933959,-0.190241
0.937866,-0.186451
0.941774,-0.181395
0.945682,-0.175453
0.949590,-0.169704
0.953497,-0.164803
0.957405,-0.160335
0.961313,-0.155175
0.965221,-0.148521
0.969129,-0.140770
0.973036,-0.133540
0.976944,-0.128752
0.980852,-0.127335
0.984760,-0.128373
0.988667,-0.129361
0.992575,-0.127603
0.996483,-0.121950
1.000391,-0.113725
1.004299,-0.106091
1.008206,-0.102114
1.012114,-0.102685
1.016022,-0.105654
1.019930,-0.106814
1.023837,-0.102257
1.027745,-0.090725
1.031653,-0.074549
1.035561,-0.058675
1.039469,-0.048369
1.043376,-0.046838
1.047284,-0.053927
1.051192,-0.066432
1.055100,-0.079808
1.059007,-0.090377
1.062915,-0.096864
1.066823,-0.100523
1.070731,-0.103979
1.074639,-0.109630
1.078546,-0.118573
1.082454,-0.130454
1.086362,-0.143982
1.090270,-0.157505
1.094177,-0.169283
1.098085,-0.177609
1.101993,-0.181134
1.105901,-0.179513
1.109809,-0.173969
1.113716,-0.167146
1.117624,-0.161994
1.121532,-0.160166
1.125440,-0.160952
1.129347,-0.161651
1.133255,-0.159415
1.137163,-0.153450
1.141071,-0.145697
1.144979,-0.138600
1.148886,-0.130300
1.152794,-0.110090
1.156702,-0.058400
1.160610,0.045540
1.164517,0.209387
1.168425,0.413207
1.172333,0.604455
1.176241,0.709658
1.180148,0.661931
1.184056,0.433518
1.187964,0.056854
1.191872,-0.379205
1.195780,-0.759646
1.199687,-0.987499
1.203595,-1.020984
1.207503,-0.885519
1.211411,-0.655699
1.215318,-0.418140
1.219226,-0.235214
1.223134,-0.127080
1.227042,-0.077375
1.230950,-0.054492
1.234857,-0.033520
1.238765,-0.006819
1.242673,0.019433
1.246581,0.036336
1.250488,0.041508
1.254396,0.040603
1.258304,0.042081
1.262212,0.050711
1.266120,0.064998
1.270027,0.079641
1.273935,0.090179
1.277843,0.096017
1.281751,0.100057
1.285658,0.106047
1.289566,0.116054
1.293474,0.129765
1.297382,0.145543
1.301290,0.161945
1.305197,0.178482
1.309105,0.195370
1.313013,0.212904
1.316921,0.231110
1.320828,0.249832
1.324736,0.268983
1.328644,0.288651
1.332552,0.309045
1.336460,0.330434
1.340367,0.353145
1.344275,0.377511
1.348183,0.403604
1.352091,0.430861
1.355998,0.457948
1.359906,0.483107
1.363814,0.504833
1.367722,0.522349
1.371630,0.535543
1.375537,0.544481
1.379445,0.549027
1.383353,0.548930
1.387261,0.544231
1.391168,0.535494
1.395076,0.523503
1.398984,0.508587
1.402892,0.490037
1.406800,0.466063
1.410707,0.434403
1.414615,0.393359
1.418523,0.342782
1.422431,0.284570
1.426338,0.222338
1.430246,0.160321
1.434154,0.101946
1.438062,0.048743
1.441970,0.000242
1.445877,-0.045038
1.449785,-0.088066
1.453693,-0.128296
1.457601,-0.163869
1.461508,-0.192868
1.465416,-0.214641
1.469324,-0.230257
1.473232,-0.241857
1.477140,-0.251469
1.481047,-0.260102
1.484955,-0.267602
1.488863,-0.273200
1.492771,-0.276291
1.496678,-0.276948
1.500586,-0.275901
1.504494,-0.274036
1.508402,-0.271811
1.512309,-0.269049
1.516217,-0.265280
1.520125,-0.260315
1.524033,-0.254553
1.527941,-0.248775
1.531848,-0.243627
1.535756,-0.239240
1.539664,-0.235309
1.543572,-0.231513
1.547479,-0.227892
1.551387,-0.224812
1.555295,-0.222533
1.559203,-0.220770
1.563111,-0.218640
1.567018,-0.215113
1.570926,-0.209621
1.574834,-0.202421
1.578742,-0.194471
1.582649,-0.186931
1.586557,-0.180648
1.590465,-0.175882
1.594373,-0.172388
1.598281,-0.169742
1.602188,-0.167661
1.606096,-0.166088
1.610004,-0.164922
1.613912,-0.163606
1.617819,-0.160988
1.621727,-0.155781
1.625635,-0.147448
1.629543,-0.136908
1.633451,-0.126457
1.637358,-0.118741
1.641266,-0.115252
1.645174,-0.115198
1.649082,-0.115500
1.652989,-0.112140
1.656897,-0.102275
1.660805,-0.085982
1.664713,-0.066565
1.668621,-0.049181
1.672528,-0.038513
1.676436,-0.036754
1.680344,-0.042896
1.684252,-0.053530
1.688159,-0.064632
1.692067,-0.073432
1.695975,-0.079498
1.699883,-0.084573
1.703791,-0.091328
1.707698,-0.101713
1.711606,-0.115875
1.715514,-0.132188
1.719422,-0.148247
1.723329,-0.162070
1.727237,-0.172719
1.731145,-0.180112
1.735053,-0.184435
1.738961,-0.185775
1.742868,-0.184293
1.746776,-0.180679
1.750684,-0.176337
1.754592,-0.172883
1.758499,-0.171120
1.762407,-0.170262
1.766315,-0.168271
1.770223,-0.163341
1.774131,-0.155219
1.778038,-0.144467
1.781946,-0.128992
1.785854,-0.099787
1.789762,-0.040034
1.793669,0.068672
1.797577,0.233084
1.801485,0.433859
1.805393,0.619601
1.809301,0.717416
1.813208,0.660043
1.817116,0.419099
1.821024,0.027431
1.824932,-0.423756
1.828839,-0.815465
1.832747,-1.046652
1.836655,-1.073423
1.840563,-0.922436
1.844470,-0.672656
1.848378,-0.416298
1.852286,-0.220052
1.856194,-0.105435
1.860102,-0.054577
1.864009,-0.033004
1.867917,-0.013348
1.871825,0.013123
1.875733,0.040083
1.879640,0.057950
1.883548,0.063755
1.887456,0.062899
1.891364,0.063803
1.895272,0.071260
1.899179,0.083865
1.903087,0.096640
1.906995,0.105784
1.910903,0.111482
1.914810,0.116992
1.918718,0.125522
1.922626,0.137839
1.926534,0.152369
1.930442,0.167120
1.934349,0.181387
1.938257,0.195827
1.942165,0.211221
1.946073,0.227354
1.949980,0.243107
1.953888,0.257640
1.957796,0.271543
1.961704,0.286891
1.965612,0.306042
1.969519,0.330079
1.973427,0.358059
1.977335,0.387627
1.981243,0.416457
1.985150,0.443401
1.989058,0.468551
1.992966,0.492368
1.996874,0.514733
2.000782,0.534718
2.004689,0.551123
2.008597,0.563193
2.012505,0.570844
2.016413,0.574333
2.020320,0.573769
2.024228,0.568966
2.028136,0.559662
2.032044,0.545753
2.035952,0.527152
2.039859,0.503306
2.043767,0.472830
2.047675,0.433843
2.051583,0.385091
2.055490,0.327283
2.059398,0.263686
2.063306,0.199336
2.067214,0.139066
2.071122,0.085460
2.075029,0.038083
2.078937,-0.005436
2.082845,-0.047221
2.086753,-0.087471
2.090660,-0.124426
2.094568,-0.155780
2.098476,-0.180263
2.102384,-0.198230
2.106292,-0.211088
2.110199,-0.220310
2.114107,-0.226833
2.118015,-0.231062
2.121923,-0.233154
2.125830,-0.233256
2.129738,-0.231638
2.133646,-0.228815
2.137554,-0.225573
2.141462,-0.222760
2.145369,-0.220832
2.149277,-0.219508
2.153185,-0.217871
2.157093,-0.214898
2.161000,-0.210027
2.164908,-0.203416
2.168816,-0.195806
2.172724,-0.188151
2.176631,-0.181219
2.180539,-0.175292
2.184447,-0.170100
2.188355,-0.165005
2.192263,-0.159413
2.196170,-0.153215
2.200078,-0.147007
2.203986,-0.141854
2.207894,-0.138629
2.211801,-0.137282
2.215709,-0.136621
2.219617,-0.134908
2.223525,-0.130985
2.227433,-0.125168
2.231340,-0.119208
2.235248,-0.115236
2.239156,-0.114349
2.243064,-0.115796
2.246971,-0.117399
2.250879,-0.116951
2.254787,-0.113634
2.258695,-0.108398
2.262603,-0.103034
2.266510,-0.098705
2.270418,-0.095089
2.274326,-0.090838
2.278234,-0.084948
2.282141,-0.077940
2.286049,-0.071805
2.289957,-0.068624
2.293865,-0.068775
2.297773,-0.070042
2.301680,-0.068444
2.305588,-0.060437
2.309496,-0.045194
2.313404,-0.025472
2.317311,-0.006459
2.321219,0.006684
2.325127,0.011108
2.329035,0.007144
2.332943,-0.002408
2.336850,-0.013887
2.340758,-0.024383
2.344666,-0.032704
2.348574,-0.039455
2.352481,-0.046310
2.356389,-0.054883
2.360297,-0.065764
2.364205,-0.078218
2.368113,-0.090657
2.372020,-0.101479
2.375928,-0.109706
2.379836,-0.115061
2.383744,-0.117638
2.387651,-0.117628
2.391559,-0.115436
2.395467,-0.112022
2.399375,-0.108969
2.403283,-0.107805
2.407190,-0.108751
2.411098,-0.109879
2.415006,-0.107871
2.418914,-0.100573
2.422821,-0.089589
2.426729,-0.079902
2.430637,-0.074675
2.434545,-0.067152
2.438453,-0.035740
2.442360,0.050816
2.446268,0.216027
2.450176,0.452693
2.454084,0.708371
2.457991,0.892821
2.461899,0.910679
2.465807,0.707086
2.469715,0.302869
2.473623,-0.202446
2.477530,-0.665886
2.481438,-0.959392
2.485346,-1.022119
2.489254,-0.879945
2.493161,-0.623690
2.497069,-0.360403
2.500977,-0.165539
2.504885,-0.060145
2.508792,-0.019919
2.512700,-0.004157
2.516608,0.016161
2.520516,0.046732
2.524424,0.076734
2.528331,0.094203
2.532239,0.097187
2.536147,0.094053
2.540055,0.095558
2.543962,0.106576
2.547870,0.123853
2.551778,0.140260
2.555686,0.151049
2.559594,0.156970
2.563501,0.162561
2.567409,0.171981
2.571317,0.186086
2.575225,0.202667
2.579132,0.218823
2.583040,0.233131
2.586948,0.246102
2.590856,0.259157
2.594764,0.273426
2.598671,0.289357
2.602579,0.307109
2.606487,0.326976
2.610395,0.349274
2.614302,0.373829
2.618210,0.399738
2.622118,0.425768
2.626026,0.451097
2.629934,0.475724
2.633841,0.500211
2.637749,0.525030
2.641657,0.550029
2.645565,0.574337
2.649472,0.596620
2.653380,0.615426
2.657288,0.629466
2.661196,0.637841
2.665104,0.640241
2.669011,0.637052
2.672919,0.629220
2.676827,0.617775
2.680735,0.603169
2.684642,0.584794
2.688550,0.561044
2.692458,0.530001
2.696366,0.490398
2.700274,0.442339
2.704181,0.387385
2.708089,0.328005
2.711997,0.266743
2.715905,0.205566
2.719812,0.145747
2.723720,0.088250
2.727628,0.034246
2.731536,-0.014705
2.735444,-0.057070
2.739351,-0.092106
2.743259,-0.120396
2.747167,-0.143625
2.751075,-0.163586
2.754982,-0.181049
2.758890,-0.195336
2.762798,-0.204993
2.766706,-0.209118
2.770614,-0.208373
2.774521,-0.204943
2.778429,-0.201501
2.782337,-0.199929
2.786245,-0.200634
2.790152,-0.202767
2.794060,-0.204970
2.797968,-0.206025
2.801876,-0.205093
2.805784,-0.201705
2.809691,-0.195882
2.813599,-0.188407
2.817507,-0.180833
2.821415,-0.174841
2.825322,-0.171160
2.829230,-0.168900
2.833138,-0.166062
2.837046,-0.161047
2.840953,-0.154002
2.844861,-0.146674
2.848769,-0.140643
2.852677,-0.135329
2.856585,-0.127718
2.860492,-0.114529
2.864400,-0.095429
2.868308,-0.074724
2.872216,-0.059774
2.876123,-0.056876
2.880031,-0.067398
2.883939,-0.086895
2.887847,-0.107700
2.891755,-0.122952
2.895662,-0.129263
2.899570,-0.126798
2.903478,-0.117819
2.907386,-0.105644
2.911293,-0.094640
2.915201,-0.089887
2.919109,-0.094866
2.923017,-0.107633
2.926925,-0.118723
2.930832,-0.114238
2.934740,-0.084217
2.938648,-0.031442
2.942556,0.026231
2.946463,0.063673
2.950371,0.062918
2.954279,0.025101
2.958187,-0.028784
2.962095,-0.069817
2.966002,-0.078377
2.969910,-0.055261
2.973818,-0.019384
2.977726,0.005841
2.981633,0.007653
2.985541,-0.009542
2.989449,-0.029729
2.993357,-0.037670
2.997265,-0.028874
3.001172,-0.010783
3.005080,0.004171
3.008988,0.007514
3.012896,-0.000783
3.016803,-0.014387
3.020711,-0.026373
3.024619,-0.033834
3.028527,-0.038436
3.032435,-0.043576
3.036342,-0.051065
3.040250,-0.059808
3.044158,-0.066926
3.048066,-0.069957
3.051973,-0.068448
3.055881,-0.064165
3.059789,-0.060128
3.063697,-0.059076
3.067605,-0.061920
3.071512,-0.066822
3.075420,-0.069758
3.079328,-0.066938
3.083236,-0.057972
3.087143,-0.046897
3.091051,-0.038368
3.094959,-0.029512
3.098867,-0.002851
3.102775,0.071816
3.106682,0.222204
3.110590,0.449665
3.114498,0.710487
3.118406,0.917986
3.122313,0.971796
3.126221,0.804480
3.130129,0.422062
3.134037,-0.085752
3.137945,-0.575655
3.141852,-0.908968
3.145760,-1.009148
3.149668,-0.889092
3.153576,-0.635367
3.157483,-0.360443
3.161391,-0.150545
3.165299,-0.036217
3.169207,0.003438
3.173114,0.012301
3.177022,0.025748
3.180930,0.054462
3.184838,0.088525
3.188746,0.113189
3.192653,0.122607
3.196561,0.122758
3.200469,0.124488
3.204377,0.134349
3.208284,0.150698
3.212192,0.166911
3.216100,0.177748
3.220008,0.183302
3.223916,0.187962
3.227823,0.196211
3.231731,0.209191
3.235639,0.224581
3.239547,0.239216
3.243454,0.251793
3.247362,0.263467
3.251270,0.276291
3.255178,0.291247
3.259086,0.307609
3.262993,0.323993
3.266901,0.339957
3.270809,0.356699
3.274717,0.376296
3.278624,0.400128
3.282532,0.427772
3.286440,0.457225
3.290348,0.486221
3.294256,0.513570
3.298163,0.539501
3.302071,0.564833
3.305979,0.589728
3.309887,0.613039
3.313794,0.632714
3.317702,0.646843
3.321610,0.654524
3.325518,0.655993
3.329426,0.652134
3.333333,0.643874
3.337241,0.631815
3.341149,0.616149
3.345057,0.596626
3.348964,0.572489
3.352872,0.542505
3.356780,0.505282
3.360688,0.459945
3.364596,0.406865
3.368503,0.347974
3.372411,0.286336
3.376319,0.225116
3.380227,0.166573
3.384134,0.111670
3.388042,0.060484
3.391950,0.012993
3.395858,-0.030375
3.399766,-0.068803
3.403673,-0.101587
3.407581,-0.128605
3.411489,-0.150345
3.415397,-0.167572
3.419304,-0.180971
3.423212,-0.191057
3.427120,-0.198297
3.431028,-0.203162
3.434936,-0.206007
3.438843,-0.206969
3.442751,-0.206076
3.446659,-0.203529
3.450567,-0.199851
3.454474,-0.195698
3.458382,-0.191480
3.462290,-0.187053
3.466198,-0.181727
3.470106,-0.174615
3.474013,-0.165174
3.477921,-0.153680
3.481829,-0.141328
3.485737,-0.129838
3.489644,-0.120749
3.493552,-0.114787
3.497460,-0.111672
3.501368,-0.110444
3.505275,-0.110064
3.509183,-0.109934
3.513091,-0.110009
3.516999,-0.110436
3.520907,-0.111001
3.524814,-0.110845
3.528722,-0.108782
3.532630,-0.104113
3.536538,-0.097327
3.540445,-0.090092
3.544353,-0.084446
3.548261,-0.081706
3.552169,-0.081864
3.556077,-0.083814
3.559984,-0.086150
3.563892,-0.087892
3.567800,-0.088704
3.571708,-0.088615
3.575615,-0.087616
3.579523,-0.085537
3.583431,-0.082238
3.587339,-0.077874
3.591247,-0.072987
3.595154,-0.068366
3.599062,-0.064751
3.602970,-0.062444
3.606878,-0.060980
3.610785,-0.059124
3.614693,-0.055429
3.618601,-0.049210
3.622509,-0.041294
3.626417,-0.033857
3.630324,-0.029176
3.634232,-0.027921
3.638140,-0.028150
3.642048,-0.025869
3.645955,-0.017058
3.649863,-0.000097
3.653771,0.022856
3.657679,0.046440
3.661587,0.064415
3.665494,0.072515
3.669402,0.070249
3.673310,0.060682
3.677218,0.048442
3.681125,0.037219
3.685033,0.028193
3.688941,0.020141
3.692849,0.010886
3.696757,-0.000986
3.700664,-0.015210
3.704572,-0.030186
3.708480,-0.044120
3.712388,-0.056051
3.716295,-0.066031
3.720203,-0.074435
3.724111,-0.081059
3.728019,-0.084843
3.731927,-0.084576
3.735834,-0.080125
3.739742,-0.073224
3.743650,-0.066928
3.747558,-0.063788
3.751465,-0.063886
3.755373,-0.064434
3.759281,-0.061826
3.763189,-0.054917
3.767097,-0.046411
3.771004,-0.039543
3.774912,-0.030553
3.778820,-0.002097
3.782728,0.075005
3.786635,0.227446
3.790543,0.456625
3.794451,0.720163
3.798359,0.932836
3.802267,0.994107
3.806174,0.833889
3.810082,0.454164
3.813990,-0.058291
3.817898,-0.559805
3.821805,-0.907850
3.825713,-1.020562
3.829621,-0.906898
3.833529,-0.652683
3.837436,-0.372506
3.841344,-0.155637
3.845252,-0.034651
3.849160,0.010874
3.853068,0.024960
3.856975,0.042498
3.860883,0.072731
3.864791,0.104173
3.868699,0.121568
3.872606,0.120190
3.876514,0.108403
3.880422,0.099781
3.884330,0.103082
3.888238,0.117825
3.892145,0.137270
3.896053,0.154709
3.899961,0.167670
3.903869,0.177680
3.907776,0.187310
3.911684,0.197806
3.915592,0.209110
3.919500,0.221385
3.923408,0.235930
3.927315,0.254356
3.931223,0.276850
3.935131,0.301376
3.939039,0.324777
3.942946,0.345014
3.946854,0.362720
3.950762,0.380797
3.954670,0.402322
3.958578,0.428371
3.962485,0.457329
3.966393,0.486118
3.970301,0.512319
3.974209,0.535591
3.978116,0.557469
3.982024,0.579835
3.985932,0.603303
3.989840,0.626593
3.993748,0.647191
3.997655,0.662687
4.001563,0.671871
4.005471,0.675064
4.009379,0.673685
4.013286,0.669420
4.017194,0.663340
4.021102,0.655250
4.025010,0.643513
4.028918,0.625528
4.032825,0.598770
4.036733,0.561878
4.040641,0.515207
4.044549,0.460604
4.048456,0.400668
4.052364,0.338040
4.056272,0.275045
4.060180,0.213628
4.064088,0.155331
4.067995,0.101207
4.071903,0.051794
4.075811,0.007295
4.079719,-0.032105
4.083626,-0.066095
4.087534,-0.094433
4.091442,-0.117388
4.095350,-0.136043
4.099258,-0.152087
4.103165,-0.167065
4.107073,-0.181455
4.110981,-0.194232
4.114889,-0.203315
4.118796,-0.206744
4.122704,-0.203894
4.126612,-0.195978
4.130520,-0.185612
4.134428,-0.175720
4.138335,-0.168391
4.142243,-0.164195
4.146151,-0.162190
4.150059,-0.160568
4.153966,-0.157605
4.157874,-0.152426
4.161782,-0.145230
4.165690,-0.136946
4.169597,-0.128608
4.173505,-0.120846
4.177413,-0.113744
4.181321,-0.107090
4.185229,-0.100821
4.189136,-0.095316
4.193044,-0.091309
4.196952,-0.089381
4.200860,-0.089380
4.204767,-0.090250
4.208675,-0.090522
4.212583,-0.089178
4.216491,-0.086265
4.220399,-0.082813
4.224306,-0.080152
4.228214,-0.079138
4.232122,-0.079771
4.236030,-0.081402
4.239937,-0.083291
4.243845,-0.085114
4.247753,-0.087048
4.251661,-0.089458
4.255569,-0.092473
4.259476,-0.095822
4.263384,-0.099038
4.267292,-0.101754
4.271200,-0.103755
4.275107,-0.104713
4.279015,-0.103950
4.282923,-0.100607
4.286831,-0.094288
4.290739,-0.085732
4.294646,-0.076933
4.298554,-0.070412
4.302462,-0.067916
4.306370,-0.069226
4.310277,-0.071811
4.314185,-0.071631
4.318093,-0.064837
4.322001,-0.049613
4.325909,-0.027284
4.329816,-0.002078
4.333724,0.020420
4.337632,0.035459
4.341540,0.040921
4.345447,0.037910
4.349355,0.029911
4.353263,0.021040
4.357171,0.014247
4.361079,0.010303
4.364986,0.007889
4.368894,0.004615
4.372802,-0.001629
4.376710,-0.011615
4.380617,-0.024454
4.384525,-0.038073
4.388433,-0.050205
4.392341,-0.059328
4.396249,-0.065052
4.400156,-0.067778
4.404064,-0.068049
4.407972,-0.066227
4.411880,-0.062819
4.415787,-0.059002
4.419695,-0.056469
4.423603,-0.056305
4.427511,-0.057734
4.431419,-0.058185
4.435326,-0.055251
4.439234,-0.049108
4.443142,-0.042420
4.447050,-0.035755
4.450957,-0.020280
4.454865,0.026120
4.458773,0.132405
4.462681,0.316020
4.466589,0.560429
4.470496,0.803463
4.474404,0.949586
4.478312,0.907107
4.482220,0.635063
4.486127,0.174550
4.490035,-0.356231
4.493943,-0.805669
4.497851,-1.051511
4.501758,-1.050761
4.505666,-0.850951
4.509574,-0.558599
4.513482,-0.284467
4.517390,-0.096428
4.521297,-0.003005
4.525205,0.029829
4.529113,0.045233
4.533021,0.068262
4.536928,0.098811
4.540836,0.123054
4.544744,0.130505
4.548652,0.123433
4.552560,0.113942
4.556467,0.113847
4.560375,0.126512
4.564283,0.146363
4.568191,0.164894
4.572098,0.177378
4.576006,0.185209
4.579914,0.193195
4.583822,0.205018
4.587730,0.220709
4.591637,0.237553
4.595545,0.252903
4.599453,0.266314
4.603361,0.279464
4.607268,0.294436
4.611176,0.312067
4.615084,0.331705
4.618992,0.352223
4.622900,0.373133
4.626807,0.394793
4.630715,0.417719
4.634623,0.441851
4.638531,0.466467
4.642438,0.490759
4.646346,0.514438
4.650254,0.537838
4.654162,0.561478
4.658070,0.585478
4.661977,0.609232
4.665885,0.631474
4.669793,0.650659
4.673701,0.665433
4.677608,0.674963
4.681516,0.679002
4.685424,0.677758
4.689332,0.671707
4.693240,0.661395
4.697147,0.647154
4.701055,0.628732
4.704963,0.605105
4.708871,0.574751
4.712778,0.536412
4.716686,0.489912
4.720594,0.436482
4.724502,0.378356
4.728410,0.317982
4.732317,0.257411
4.736225,0.198144
4.740133,0.141307
4.744041,0.087803
4.747948,0.038329
4.751856,-0.006621
4.755764,-0.046676
4.759672,-0.081500
4.763580,-0.110849
4.767487,-0.134788
4.771395,-0.153865
4.775303,-0.169048
4.779211,-0.181400
4.783118,-0.191657
4.787026,-0.199947
4.790934,-0.205810
4.794842,-0.208582
4.798750,-0.207982
4.802657,-0.204579
4.806565,-0.199759
4.810473,-0.195134
4.814381,-0.191746
4.818288,-0.189587
4.822196,-0.187724
4.826104,-0.184934
4.830012,-0.180434
4.833919,-0.174299
4.837827,-0.167316
4.841735,-0.160357
4.845643,-0.153702
4.849551,-0.146805
4.853458,-0.138761
4.857366,-0.129217
4.861274,-0.119035
4.865182,-0.110109
4.869089,-0.104341
4.872997,-0.102418
4.876905,-0.103228
4.880813,-0.104328
4.884721,-0.103198
4.888628,-0.098592
4.892536,-0.091245
4.896444,-0.083509
4.900352,-0.078085
4.904259,-0.076523
4.908167,-0.078357
4.912075,-0.081401
4.915983,-0.083033
4.919891,-0.081716
4.923798,-0.077854
4.927706,-0.073531
4.931614,-0.071307
4.935522,-0.072775
4.939429,-0.077640
4.943337,-0.083803
4.947245,-0.088430
4.951153,-0.089514
4.955061,-0.087134
4.958968,-0.083637
4.962876,-0.082394
4.966784,-0.085603
4.970692,-0.092377
4.974599,-0.098493
4.978507,-0.098317
4.982415,-0.087975
4.986323,-0.067864
4.990231,-0.042881
4.994138,-0.020177
4.998046,-0.005805
5.001954,-0.002147
5.005862,-0.007360
5.009769,-0.016824
5.013677,-0.025566
5.017585,-0.030458
5.021493,-0.031307
5.025401,-0.030534
5.029308,-0.031668
5.033216,-0.037344
5.037124,-0.047788
5.041032,-0.060594
5.044939,-0.072005
5.048847,-0.078984
5.052755,-0.080827
5.056663,-0.079282
5.060571,-0.077127
5.064478,-0.076276
5.068386,-0.076785
5.072294,-0.077419
5.076202,-0.077066
5.080109,-0.075581
5.084017,-0.073193
5.087925,-0.069243
5.091833,-0.062034
5.095741,-0.050679
5.099648,-0.037337
5.103556,-0.026487
5.107464,-0.019211
5.111372,-0.005033
5.115279,0.041505
5.119187,0.152332
5.123095,0.344852
5.127003,0.598271
5.130911,0.843636
5.134818,0.980400
5.138726,0.918077
5.142634,0.624485
5.146542,0.153555
5.150449,-0.366758
5.154357,-0.784740
5.158265,-0.989208
5.162173,-0.954292
5.166081,-0.741736
5.169988,-0.462023
5.173896,-0.218361
5.177804,-0.064733
5.181712,0.002625
5.185619,0.022758
5.189527,0.036064
5.193435,0.060963
5.197343,0.091832
5.201250,0.113237
5.205158,0.116440
5.209066,0.106236
5.212974,0.095732
5.216882,0.095745
5.220789,0.107842
5.224697,0.125481
5.228605,0.140763
5.232513,0.150624
5.236420,0.157969
5.240328,0.167975
5.244236,0.183407
5.248144,0.202739
5.252052,0.221928
5.255959,0.237770
5.259867,0.249990
5.263775,0.260853
5.267683,0.273157
5.271590,0.288458
5.275498,0.306686
5.279406,0.326966
5.283314,0.348659
5.287222,0.371794
5.291129,0.396745
5.295037,0.423617
5.298945,0.451916
5.302853,0.480731
5.306760,0.509206
5.310668,0.536866
5.314576,0.563521
5.318484,0.588856
5.322392,0.612098
5.326299,0.632078
5.330207,0.647686
5.334115,0.658371
5.338023,0.664296
5.341930,0.665998
5.345838,0.663849
5.349746,0.657725
5.353654,0.647110
5.357562,0.631435
5.361469,0.610280
5.365377,0.583278
5.369285,0.549896
5.373193,0.509442
5.377100,0.461452
5.381008,0.406282
5.384916,0.345488
5.388824,0.281659
5.392732,0.217751
5.396639,0.156254
5.400547,0.098640
5.404455,0.045336
5.408363,-0.003794
5.412270,-0.048761
5.416178,-0.088939
5.420086,-0.123092
5.423994,-0.149970
5.427902,-0.169141
5.431809,-0.181490
5.435717,-0.188976
5.439625,-0.193768
5.443533,-0.197329
5.447440,-0.200120
5.451348,-0.202089
5.455256,-0.203512
5.459164,-0.205464
5.463072,-0.209466
5.466979,-0.216504
5.470887,-0.226079
5.474795,-0.235957
5.478703,-0.242824
5.482610,-0.243525
5.486518,-0.236285
5.490426,-0.221372
5.494334,-0.200997
5.498242,-0.178563
5.502149,-0.157673
5.506057,-0.141307
5.509965,-0.131390
5.513873,-0.128680
5.517780,-0.132749
5.521688,-0.141942
5.525596,-0.153434
5.529504,-0.163654
5.533411,-0.169164
5.537319,-0.167724
5.541227,-0.158999
5.545135,-0.144538
5.549043,-0.127079
5.552950,-0.109631
5.556858,-0.094779
5.560766,-0.084344
5.564674,-0.079254
5.568581,-0.079493
5.572489,-0.084122
5.576397,-0.091491
5.580305,-0.099645
5.584213,-0.106793
5.588120,-0.111645
5.592028,-0.113485
5.595936,-0.112110
5.599844,-0.107829
5.603751,-0.101602
5.607659,-0.095099
5.611567,-0.090282
5.615475,-0.088460
5.619383,-0.089306
5.623290,-0.090709
5.627198,-0.089907
5.631106,-0.085354
5.635014,-0.077969
5.638921,-0.070712
5.642829,-0.066583
5.646737,-0.066323
5.650645,-0.067396
5.654553,-0.065088
5.658460,-0.055209
5.662368,-0.036811
5.666276,-0.013213
5.670184,0.009389
5.674091,0.024914
5.677999,0.030209
5.681907,0.026157
5.685815,0.016714
5.689723,0.006657
5.693630,-0.000689
5.697538,-0.004725
5.701446,-0.007363
5.705354,-0.011582
5.709261,-0.019576
5.713169,-0.031540
5.717077,-0.045720
5.720985,-0.059583
5.724893,-0.071252
5.728800,-0.080245
5.732708,-0.087137
5.736616,-0.092588
5.740524,-0.096709
5.744431,-0.099314
5.748339,-0.100734
5.752247,-0.102138
5.756155,-0.104686
5.760063,-0.107976
5.763970,-0.109283
5.767878,-0.104817
5.771786,-0.092752
5.775694,-0.075807
5.779601,-0.060339
5.783509,-0.050469
5.787417,-0.039595
5.791325,-0.005624
5.795233,0.083215
5.799140,0.250128
5.803048,0.486279
5.806956,0.736558
5.810864,0.908300
5.814771,0.905781
5.818679,0.677232
5.822587,0.249935
5.826495,-0.268770
5.830403,-0.730043
5.834310,-1.004999
5.838218,-1.038134
5.842126,-0.865081
5.846034,-0.586721
5.849941,-0.315955
5.853849,-0.127410
5.857757,-0.035648
5.861665,-0.008197
5.865572,0.000989
5.869480,0.021084
5.873388,0.053720
5.877296,0.083109
5.881204,0.094718
5.885111,0.087683
5.889019,0.073946
5.892927,0.067976
5.896835,0.076681
5.900742,0.096779
5.904650,0.119783
5.908558,0.139191
5.912466,0.154187
5.916374,0.168188
5.920281,0.184802
5.924189,0.204941
5.928097,0.226884
5.932005,0.248276
5.935912,0.267872
5.939820,0.285715
5.943728,0.302175
5.947636,0.317213
5.951544,0.330666
5.955451,0.343162
5.959359,0.356580
5.963267,0.373368
5.967175,0.395076
5.971082,0.421222
5.974990,0.449434
5.978898,0.476803
5.982806,0.501458
5.986714,0.523245
5.990621,0.543209
5.994529,0.562463
5.998437,0.581278
6.002345,0.598824
6.006252,0.613504
6.010160,0.623567
6.014068,0.627817
6.017976,0.626217
6.021884,0.620075
6.025791,0.611467
6.029699,0.601937
6.033607,0.591184
6.037515,0.576723
6.041422,0.555005
6.045330,0.523406
6.049238,0.481788
6.053146,0.432584
6.057054,0.379410
6.060961,0.325190
6.064869,0.271029
6.068777,0.216451
6.072685,0.160665
6.076592,0.103872
6.080500,0.047698
6.084408,-0.005401
6.088316,-0.053218
6.092224,-0.094602
6.096131,-0.129593
6.100039,-0.158963
6.103947,-0.183551
6.107855,-0.203788
6.111762,-0.219635
6.115670,-0.230909
6.119578,-0.237771
6.123486,-0.241060
6.127394,-0.242241
6.131301,-0.242950
6.135209,-0.244339
6.139117,-0.246587
6.143025,-0.248855
6.146932,-0.249732
6.150840,-0.247912
6.154748,-0.242746
6.158656,-0.234418
6.162564,-0.223719
6.166471,-0.211668
6.170379,-0.199205
6.174287,-0.187063
6.178195,-0.175745
6.182102,-0.165550
6.186010,-0.156667
6.189918,-0.149311
6.193826,-0.143740
6.197733,-0.140073
6.201641,-0.138031
6.205549,-0.136862
6.209457,-0.135528
6.213365,-0.133084
6.217272,-0.129046
6.221180,-0.123640
6.225088,-0.117878
6.228996,-0.113380
6.232903,-0.111871
6.236811,-0.114419
6.240719,-0.120723
6.244627,-0.128918
6.248535,-0.136218
6.252442,-0.140196
6.256350,-0.140009
6.260258,-0.136798
6.264166,-0.132942
6.268073,-0.130629
6.271981,-0.130620
6.275889,-0.131931
6.279797,-0.132580
6.283705,-0.130895
6.287612,-0.126638
6.291520,-0.121277
6.295428,-0.117202
6.299336,-0.116294
6.303243,-0.118695
6.307151,-0.122589
6.311059,-0.125251
6.314967,-0.124774
6.318875,-0.121368
6.322782,-0.117301
6.326690,-0.115375
6.330598,-0.116786
6.334506,-0.119735
6.338413,-0.119834
6.342321,-0.112352
6.346229,-0.095158
6.350137,-0.070597
6.354045,-0.044994
6.357952,-0.025824
6.361860,-0.018112
6.365768,-0.022123
6.369676,-0.033582
6.373583,-0.046160
6.377491,-0.054700
6.381399,-0.057479
6.385307,-0.056500
6.389215,-0.055897
6.393122,-0.059464
6.397030,-0.068664
6.400938,-0.082110
6.404846,-0.096641
6.408753,-0.109178
6.412661,-0.118174
6.416569,-0.123865
6.420477,-0.127372
6.424385,-0.129503
6.428292,-0.130183
6.432200,-0.128924
6.436108,-0.125849
6.440016,-0.122211
6.443923,-0.119647
6.447831,-0.118550
6.451739,-0.117147
6.455647,-0.112652
6.459555,-0.104025
6.463462,-0.093551
6.467370,-0.084230
6.471278,-0.072950
6.475186,-0.044119
6.479093,0.029024
6.483001,0.171095
6.486909,0.383054
6.490817,0.624711
6.494725,0.815635
6.498632,0.861124
6.502540,0.695300
6.506448,0.320394
6.510356,-0.180906
6.514263,-0.671185
6.518171,-1.012729
6.522079,-1.124264
6.525987,-1.011066
6.529894,-0.753787
6.533802,-0.464109
6.537710,-0.232757
6.541618,-0.097062
6.545526,-0.041245
6.549433,-0.022606
6.553341,-0.003670
6.557249,0.028921
6.561157,0.066011
6.565064,0.091202
6.568972,0.096253
6.572880,0.086364
6.576788,0.074448
6.580696,0.071197
6.584603,0.079033
6.588511,0.093310
6.592419,0.108127
6.596327,0.121360
6.600234,0.135361
6.604142,0.153796
6.608050,0.177923
6.611958,0.205334
6.615866,0.231644
6.619773,0.253330
6.623681,0.269417
6.627589,0.281151
6.631497,0.290448
6.635404,0.298608
6.639312,0.306161
6.643220,0.313598
6.647128,0.322046
6.651036,0.333197
6.654943,0.348534
6.658851,0.368560
6.662759,0.392623
6.666667,0.419387
6.670574,0.447459
6.674482,0.475690
6.678390,0.503037
6.682298,0.528254
6.686206,0.549777
6.690113,0.565951
6.694021,0.575516
6.697929,0.578061
6.701837,0.574240
6.705744,0.565620
6.709652,0.554194
6.713560,0.541684
6.717468,0.528863
6.721376,0.515186
6.725283,0.498926
6.729191,0.477802
6.733099,0.449809
6.737007,0.413897
6.740914,0.370254
6.744822,0.320213
6.748730,0.265884
6.752638,0.209649
6.756546,0.153608
6.760453,0.099204
6.764361,0.047182
6.768269,-0.002050
6.772177,-0.047894
6.776084,-0.089262
6.779992,-0.124808
6.783900,-0.153610
6.787808,-0.175841
6.791716,-0.192903
6.795623,-0.206853
6.799531,-0.219429
6.803439,-0.231262
6.807347,-0.241734
6.811254,-0.249603
6.815162,-0.254016
6.819070,-0.255238
6.822978,-0.254609
6.826886,-0.253713
6.830793,-0.253380
6.834701,-0.253205
6.838609,-0.251876
6.842517,-0.248014
6.846424,-0.240894
6.850332,-0.230726
6.854240,-0.218517
6.858148,-0.205802
6.862055,-0.194361
6.865963,-0.185842
6.869871,-0.181232
6.873779,-0.180394
6.877687,-0.182035
6.881594,-0.184332
6.885502,-0.185926
6.889410,-0.186634
6.893318,-0.187348
6.897225,-0.189169
6.901133,-0.192423
6.905041,-0.196285
6.908949,-0.199222
6.912857,-0.199889
6.916764,-0.197870
6.920672,-0.193833
6.924580,-0.189101
6.928488,-0.184937
6.932395,-0.181970
6.936303,-0.180075
6.940211,-0.178683
6.944119,-0.177258
6.948027,-0.175564
6.951934,-0.173565
6.955842,-0.171143
6.959750,-0.167979
6.963658,-0.163781
6.967565,-0.158696
6.971473,-0.153450
6.975381,-0.148989
6.979289,-0.145832
6.983197,-0.143694
6.987104,-0.141783
6.991012,-0.139554
6.994920,-0.137262
6.998828,-0.135702
7.002735,-0.135277
7.006643,-0.135205
7.010551,-0.133694
7.014459,-0.129218
7.018367,-0.121997
7.022274,-0.114440
7.026182,-0.109918
7.030090,-0.110446
7.033998,-0.114806
7.037905,-0.118514
7.041813,-0.115901
7.045721,-0.103224
7.049629,-0.080994
7.053537,-0.054131
7.057444,-0.029813
7.061352,-0.014186
7.065260,-0.009743
7.069168,-0.014692
7.073075,-0.024506
7.076983,-0.034592
7.080891,-0.042510
7.084799,-0.048594
7.088707,-0.054913
7.092614,-0.063531
7.096522,-0.075231
7.100430,-0.089316
7.104338,-0.104236
7.108245,-0.118388
7.112153,-0.130593
7.116061,-0.140190
7.119969,-0.146942
7.123877,-0.150968
7.127784,-0.152725
7.131692,-0.152955
7.135600,-0.152551
7.139508,-0.152290
7.143415,-0.152488
7.147323,-0.152711
7.151231,-0.151802
7.155139,-0.148528
7.159047,-0.142706
7.162954,-0.135906
7.166862,-0.130303
7.170770,-0.124979
7.174678,-0.111118
7.178585,-0.069989
7.182493,0.021871
7.186401,0.178987
7.190309,0.389601
7.194216,0.605008
7.198124,0.746170
7.202032,0.730841
7.205940,0.512237
7.209848,0.110345
7.213755,-0.383316
7.217663,-0.834963
7.221571,-1.120928
7.225479,-1.178015
7.229386,-1.026075
7.233294,-0.751669
7.237202,-0.463058
7.241110,-0.241792
7.245018,-0.115821
7.248925,-0.064268
7.252833,-0.044965
7.256741,-0.024576
7.260649,0.006312
7.264556,0.037835
7.268464,0.056582
7.272372,0.058750
7.276280,0.052274
7.280188,0.049277
7.284095,0.056800
7.288003,0.073177
7.291911,0.091534
7.295819,0.106212
7.299726,0.116635
7.303634,0.126330
7.307542,0.139028
7.311450,0.155535
7.315358,0.173591
7.319265,0.190093
7.323173,0.203397
7.327081,0.213967
7.330989,0.223366
7.334896,0.232863
7.338804,0.242853
7.342712,0.253292
7.346620,0.264420
7.350528,0.276955
7.354435,0.291621
7.358343,0.308533
7.362251,0.327120
7.366159,0.346691
7.370066,0.367106
7.373974,0.388925
7.377882,0.412880
7.381790,0.439124
7.385698,0.466813
7.389605,0.494228
7.393513,0.519250
7.397421,0.539854
7.401329,0.554418
7.405236,0.561880
7.409144,0.561849
7.413052,0.554707
7.416960,0.541562
7.420868,0.523865
7.424775,0.502752
7.428683,0.478441
7.432591,0.450074
7.436499,0.416187
7.440406,0.375632
7.444314,0.328477
7.448222,0.276320
7.452130,0.221753
7.456038,0.167276
7.459945,0.114310
7.463853,0.062926
7.467761,0.012391
7.471669,-0.037844
7.475576,-0.087315
7.479484,-0.134359
7.483392,-0.176649
7.487300,-0.212165
7.491208,-0.240032
7.495115,-0.260782
7.499023,-0.275923
7.502931,-0.287157
7.506839,-0.295692
7.510746,-0.301983
7.514654,-0.305884
7.518562,-0.307059
7.522470,-0.305476
7.526377,-0.301826
7.530285,-0.297647
7.534193,-0.294904
7.538101,-0.295119
7.542009,-0.298444
7.545916,-0.303290
7.549824,-0.306770
7.553732,-0.305823
7.557640,-0.298501
7.561547,-0.284861
7.565455,-0.267032
7.569363,-0.248379
7.573271,-0.232185
7.577179,-0.220521
7.581086,-0.213912
7.584994,-0.211818
7.588902,-0.213446
7.592810,-0.218221
7.596717,-0.225621
7.600625,-0.234605
7.604533,-0.243208
7.608441,-0.248800
7.612349,-0.249002
7.616256,-0.242773
7.620164,-0.231012
7.624072,-0.216330
7.627980,-0.202131
7.631887,-0.191470
7.635795,-0.186199
7.639703,-0.186668
7.643611,-0.192011
7.647519,-0.200778
7.651426,-0.211555
7.655334,-0.223309
7.659242,-0.235354
7.663150,-0.247031
7.667057,-0.257337
7.670965,-0.264772
7.674873,-0.267654
7.678781,-0.264894
7.682689,-0.256863
7.686596,-0.245713
7.690504,-0.234718
7.694412,-0.226802
7.698320,-0.223145
7.702227,-0.222848
7.706135,-0.223921
7.710043,-0.224832
7.713951,-0.225343
7.717859,-0.226013
7.721766,-0.226938
7.725674,-0.226960
7.729582,-0.224138
7.733490,-0.217106
7.737397,-0.206206
7.741305,-0.193447
7.745213,-0.181232
7.749121,-0.170690
7.753029,-0.160787
7.756936,-0.148915
7.760844,-0.132710
7.764752,-0.112024
7.768660,-0.089756
7.772567,-0.070888
7.776475,-0.060112
7.780383,-0.059376
7.784291,-0.066784
7.788199,-0.077501
7.792106,-0.086140
7.796014,-0.089262
7.799922,-0.086704
7.803830,-0.081265
7.807737,-0.077164
7.811645,-0.078147
7.815553,-0.086075
7.819461,-0.100464
7.823369,-0.118975
7.827276,-0.138492
7.831184,-0.156229
7.835092,-0.170407
7.839000,-0.180316
7.842907,-0.185962
7.846815,-0.187728
7.850723,-0.186360
7.854631,-0.183178
7.858538,-0.179991
7.862446,-0.178339
7.866354,-0.178369
7.870262,-0.178388
7.874170,-0.175865
7.878077,-0.169337
7.881985,-0.159191
7.885893,-0.145369
7.889801,-0.122481
7.893708,-0.076119
7.897616,0.014239
7.901524,0.163161
7.905432,0.361983
7.909340,0.566681
7.913247,0.702253
7.917155,0.687963
7.921063,0.475397
7.924971,0.080747
7.928878,-0.408331
7.932786,-0.859849
7.936694,-1.148929
7.940602,-1.209024
7.944510,-1.056701
7.948417,-0.777474
7.952325,-0.481519
7.956233,-0.254100
7.960141,-0.126463
7.964048,-0.078793
7.967956,-0.067379
7.971864,-0.055809
7.975772,-0.031792
7.979680,-0.003883
7.983587,0.013882
7.987495,0.015839
7.991403,0.008064
7.995311,0.001846
7.999218,0.004681
8.003126,0.016151
8.007034,0.030624
8.010942,0.043086
8.014850,0.052837
8.018757,0.062655
8.022665,0.075221
8.026573,0.090473
8.030481,0.105995
8.034388,0.119546
8.038296,0.131057
8.042204,0.142328
8.046112,0.155016
8.050020,0.169037
8.053927,0.182918
8.057835,0.195677
8.061743,0.208408
8.065651,0.224068
8.069558,0.245561
8.073466,0.273638
8.077374,0.306217
8.081282,0.339584
8.085190,0.370484
8.089097,0.397565
8.093005,0.421297
8.096913,0.442763
8.100821,0.462451
8.104728,0.479926
8.108636,0.494372
8.112544,0.505304
8.116452,0.512783
8.120360,0.516998
8.124267,0.517691
8.128175,0.513997
8.132083,0.504844
8.135991,0.489553
8.139898,0.468088
8.143806,0.440827
8.147714,0.408120
8.151622,0.370079
8.155530,0.326738
8.159437,0.278408
8.163345,0.225898
8.167253,0.170465
8.171161,0.113618
8.175068,0.056973
8.178976,0.002204
8.182884,-0.049083
8.186792,-0.095666
8.190699,-0.137101
8.194607,-0.173808
8.198515,-0.206684
8.202423,-0.236408
8.206331,-0.262943
8.210238,-0.285583
8.214146,-0.303559
8.218054,-0.316746
8.221962,-0.325888
8.225869,-0.332091
8.229777,-0.335953
8.233685,-0.337125
8.237593,-0.334784
8.241501,-0.328746
8.245408,-0.320278
8.249316,-0.311847
8.253224,-0.305876
8.257132,-0.303416
8.261039,-0.303705
8.264947,-0.304870
8.268855,-0.305174
8.272763,-0.303923
8.276671,-0.301525
8.280578,-0.298818
8.284486,-0.296246
8.288394,-0.293476
8.292302,-0.289687
8.296209,-0.284266
8.300117,-0.277410
8.304025,-0.270200
8.307933,-0.264121
8.311841,-0.260330
8.315748,-0.259139
8.319656,-0.259941
8.323564,-0.261610
8.327472,-0.263109
8.331379,-0.263958
8.335287,-0.264268
8.339195,-0.264363
8.343103,-0.264334
8.347011,-0.263896
8.350918,-0.262650
8.354826,-0.260495
8.358734,-0.257826
8.362642,-0.255360
8.366549,-0.253745
8.370457,-0.253244
8.374365,-0.253665
8.378273,-0.254487
8.382181,-0.255033
8.386088,-0.254642
8.389996,-0.252832
8.393904,-0.249442
8.397812,-0.244669
8.401719,-0.238987
8.405627,-0.232990
8.409535,-0.227260
8.413443,-0.222239
8.417351,-0.218055
8.421258,-0.214398
8.425166,-0.210638
8.429074,-0.206282
8.432982,-0.201490
8.436889,-0.197179
8.440797,-0.194421
8.444705,-0.193432
8.448613,-0.192922
8.452521,-0.190521
8.456428,-0.184288
8.460336,-0.174405
8.464244,-0.163710
8.468152,-0.156365
8.472059,-0.155247
8.475967,-0.159750
8.479875,-0.165594
8.483783,-0.166959
8.487691,-0.159741
8.491598,-0.143952
8.495506,-0.123862
8.499414,-0.105896
8.503322,-0.095542
8.507229,-0.094917
8.511137,-0.102117
8.515045,-0.112530
8.518953,-0.121376
8.522860,-0.126179
8.526768,-0.127866
8.530676,-0.129907
8.534584,-0.136048
8.538492,-0.148035
8.542399,-0.164675
8.546307,-0.182615
8.550215,-0.198128
8.554123,-0.208786
8.558030,-0.214139
8.561938,-0.215306
8.565846,-0.213927
8.569754,-0.211255
8.573662,-0.207906
8.577569,-0.204243
8.581477,-0.200840
8.585385,-0.198360
8.589293,-0.196802
8.593200,-0.194892
8.597108,-0.190633
8.601016,-0.183029
8.604924,-0.173366
8.608832,-0.163705
8.612739,-0.151932
8.616647,-0.126222
8.620555,-0.064583
8.624463,0.055894
8.628370,0.241220
8.632278,0.462934
8.636186,0.653726
8.640094,0.725281
8.644002,0.605509
8.647909,0.278806
8.651817,-0.193339
8.655725,-0.686928
8.659633,-1.062540
8.663540,-1.223036
8.667448,-1.152299
8.671356,-0.915049
8.675264,-0.619491
8.679172,-0.364901
8.683079,-0.202674
8.686987,-0.128635
8.690895,-0.104457
8.694803,-0.090064
8.698710,-0.066160
8.702618,-0.036505
8.706526,-0.014513
8.710434,-0.007716
8.714342,-0.011643
8.718249,-0.015082
8.722157,-0.009825
8.726065,0.003794
8.729973,0.019150
8.733880,0.030118
8.737788,0.036217
8.741696,0.042344
8.745604,0.054240
8.749512,0.073900
8.753419,0.098423
8.757327,0.122595
8.761235,0.142684
8.765143,0.158526
8.769050,0.172719
8.772958,0.188048
8.776866,0.205306
8.780774,0.223056
8.784682,0.239198
8.788589,0.252933
8.792497,0.265607
8.796405,0.279983
8.800313,0.298614
8.804220,0.322469
8.808128,0.350518
8.812036,0.380292
8.815944,0.408995
8.819852,0.434558
8.823759,0.456164
8.827667,0.474069
8.831575,0.488903
8.835483,0.500955
8.839390,0.509897
8.843298,0.515056
8.847206,0.515926
8.851114,0.512493
8.855021,0.505126
8.858929,0.494194
8.862837,0.479702
8.866745,0.461150
8.870653,0.437646
8.874560,0.408181
8.878468,0.371964
8.882376,0.328743
8.886284,0.279039
8.890191,0.224196
8.894099,0.166257
8.898007,0.107638
8.901915,0.050644
8.905823,-0.003083
8.909730,-0.052975
8.913638,-0.099516
8.917546,-0.143656
8.921454,-0.185879
8.925361,-0.225449
8.929269,-0.260376
8.933177,-0.288294
8.937085,-0.307822
8.940993,-0.319593
8.944900,-0.326192
8.948808,-0.330919
8.952716,-0.336089
8.956624,-0.341930
8.960531,-0.346806
8.964439,-0.348626
8.968347,-0.346477
8.972255,-0.341373
8.976163,-0.335628
8.980070,-0.331347
8.983978,-0.329097
8.987886,-0.327630
8.991794,-0.324727
8.995701,-0.318550
8.999609,-0.308696
9.003517,-0.296498
9.007425,-0.284509
9.011333,-0.275426
9.015240,-0.270888
9.019148,-0.270685
9.023056,-0.272845
9.026964,-0.274613
9.030871,-0.273822
9.034779,-0.269862
9.038687,-0.263748
9.042595,-0.257330
9.046503,-0.252182
9.050410,-0.248811
9.054318,-0.246586
9.058226,-0.244359
9.062134,-0.241327
9.066041,-0.237560
9.069949,-0.233856
9.073857,-0.231125
9.077765,-0.229754
9.081673,-0.229381
9.085580,-0.229151
9.089488,-0.228193
9.093396,-0.226006
9.097304,-0.222562
9.101211,-0.218241
9.105119,-0.213717
9.109027,-0.209854
9.112935,-0.207502
9.116843,-0.207119
9.120750,-0.208398
9.124658,-0.210224
9.128566,-0.211163
9.132474,-0.210257
9.136381,-0.207585
9.140289,-0.204172
9.144197,-0.201320
9.148105,-0.199793
9.152013,-0.199446
9.155920,-0.199487
9.159828,-0.199192
9.163736,-0.198527
9.167644,-0.198199
9.171551,-0.199009
9.175459,-0.200945
9.179367,-0.202733
9.183275,-0.202378
9.187182,-0.198528
9.191090,-0.191781
9.194998,-0.184877
9.198906,-0.181308
9.202814,-0.182935
9.206721,-0.188082
9.210629,-0.191641
9.214537,-0.187567
9.218445,-0.172517
9.222352,-0.148321
9.226260,-0.121534
9.230168,-0.100188
9.234076,-0.089711
9.237984,-0.090475
9.241891,-0.098274
9.245799,-0.107175
9.249707,-0.112860
9.253615,-0.114545
9.257522,-0.114701
9.261430,-0.117115
9.265338,-0.124641
9.269246,-0.137808
9.273154,-0.154760
9.277061,-0.172226
9.280969,-0.186886
9.284877,-0.196522
9.288785,-0.200550
9.292692,-0.199832
9.296600,-0.196014
9.300508,-0.190835
9.304416,-0.185763
9.308324,-0.181927
9.312231,-0.180008
9.316139,-0.179865
9.320047,-0.180217
9.323955,-0.179033
9.327862,-0.174874
9.331770,-0.168309
9.335678,-0.161577
9.339586,-0.155140
9.343494,-0.142177
9.347401,-0.105193
9.351309,-0.020115
9.355217,0.129895
9.359125,0.335603
9.363032,0.549172
9.366940,0.689989
9.370848,0.672870
9.374756,0.449042
9.378664,0.039284
9.382571,-0.461388
9.386479,-0.915017
9.390387,-1.195646
9.394295,-1.241032
9.398202,-1.074568
9.402110,-0.786893
9.406018,-0.488854
9.409926,-0.262305
9.413834,-0.133844
9.417741,-0.080916
9.421649,-0.060378
9.425557,-0.038819
9.429465,-0.007227
9.433372,0.024146
9.437280,0.041710
9.441188,0.041658
9.445096,0.032067
9.449004,0.025411
9.452911,0.029311
9.456819,0.042733
9.460727,0.059257
9.464635,0.073442
9.468542,0.084842
9.472450,0.097125
9.476358,0.113980
9.480266,0.135616
9.484174,0.158515
9.488081,0.178083
9.491989,0.191755
9.495897,0.200250
9.499805,0.206511
9.503712,0.213625
9.507620,0.223358
9.511528,0.236035
9.515436,0.251352
9.519343,0.269228
9.523251,0.290009
9.527159,0.314038
9.531067,0.341056
9.534975,0.369978
9.538882,0.399189
9.542790,0.427060
9.546698,0.452298
9.550606,0.474022
9.554513,0.491724
9.558421,0.505284
9.562329,0.514992
9.566237,0.521485
9.570145,0.525540
9.574052,0.527798
9.577960,0.528483
9.581868,0.527232
9.585776,0.523094
9.589683,0.514791
9.593591,0.501126
9.597499,0.481392
9.601407,0.455521
9.605315,0.423863
9.609222,0.386754
9.613130,0.344192
9.617038,0.295981
9.620946,0.242318
9.624853,0.184467
9.628761,0.124999
9.632669,0.067274
9.636577,0.014340
9.640485,-0.032173
9.644392,-0.072485
9.648300,-0.108150
9.652208,-0.140924
9.656116,-0.171773
9.660023,-0.200563
9.663931,-0.226497
9.667839,-0.248802
9.671747,-0.267140
9.675655,-0.281523
9.679562,-0.291945
9.683470,-0.298121
9.687378,-0.299628
9.691286,-0.296393
9.695193,-0.289188
9.699101,-0.279732
9.703009,-0.270221
9.706917,-0.262493
9.710825,-0.257297
9.714732,-0.254127
9.718640,-0.251790
9.722548,-0.249302
9.726456,-0.246472
9.730363,-0.243739
9.734271,-0.241462
9.738179,-0.239338
9.742087,-0.236458
9.745995,-0.231996
9.749902,-0.225933
9.753810,-0.219180
9.757718,-0.212955
9.761626,-0.207927
9.765533,-0.203831
9.769441,-0.199862
9.773349,-0.195485
9.777257,-0.190989
9.781165,-0.187303
9.785072,-0.185203
9.788980,-0.184510
9.792888,-0.183947
9.796796,-0.181817
9.800703,-0.177058
9.804611,-0.169913
9.808519,-0.161743
9.812427,-0.154180
9.816335,-0.148271
9.820242,-0.144209
9.824150,-0.141679
9.828058,-0.140352
9.831966,-0.140072
9.835873,-0.140674
9.839781,-0.141756
9.843689,-0.142695
9.847597,-0.142889
9.851504,-0.141987
9.855412,-0.139928
9.859320,-0.136848
9.863228,-0.133018
9.867136,-0.128888
9.871043,-0.125138
9.874951,-0.122517
9.878859,-0.121456
9.882767,-0.121737
9.886674,-0.122562
9.890582,-0.123101
9.894490,-0.123068
9.898398,-0.122778
9.902306,-0.122545
9.906213,-0.121951
9.910121,-0.119737
9.914029,-0.114671
9.917937,-0.106867
9.921844,-0.098454
9.925752,-0.092738
9.929660,-0.092016
9.933568,-0.095458
9.937476,-0.098755
9.941383,-0.096212
9.945291,-0.084156
9.949199,-0.063439
9.953107,-0.039260
9.957014,-0.018403
9.960922,-0.005744
9.964830,-0.002213
9.968738,-0.005242
9.972646,-0.010949
9.976553,-0.016438
9.980461,-0.020887
9.984369,-0.025181
9.988277,-0.030737
9.992184,-0.038452
9.996092,-0.048268
10.000000,-0.059333
