time,ecg
0.000000,-0.125466
0.003908,-0.147920
0.007816,-0.169955
0.011723,-0.191659
0.015631,-0.213126
0.019539,-0.233231
0.023447,-0.249148
0.027354,-0.257683
0.031262,-0.257888
0.035170,-0.252827
0.039078,-0.248601
0.042986,-0.250696
0.046893,-0.260025
0.050801,-0.271740
0.054709,-0.278114
0.058617,-0.273852
0.062524,-0.260183
0.066432,-0.244750
0.070340,-0.237121
0.074248,-0.242867
0.078156,-0.260110
0.082063,-0.280754
0.085971,-0.295366
0.089879,-0.298412
0.093787,-0.290648
0.097694,-0.277649
0.101602,-0.266024
0.105510,-0.259937
0.109418,-0.259853
0.113326,-0.263603
0.117233,-0.268467
0.121141,-0.272694
0.125049,-0.275718
0.128957,-0.277522
0.132864,-0.278112
0.136772,-0.277673
0.140680,-0.277063
0.144588,-0.277919
0.148496,-0.281945
0.152403,-0.289781
0.156311,-0.300261
0.160219,-0.310673
0.164127,-0.318026
0.168034,-0.320657
0.171942,-0.319281
0.175850,-0.316796
0.179758,-0.316776
0.183665,-0.321401
0.187573,-0.329998
0.191481,-0.339131
0.195389,-0.344319
0.199297,-0.342428
0.203204,-0.333343
0.207112,-0.319878
0.211020,-0.305979
0.214928,-0.294454
0.218835,-0.285825
0.222743,-0.279076
0.226651,-0.273539
0.230559,-0.270232
0.234467,-0.271393
0.238374,-0.278548
0.242282,-0.290740
0.246190,-0.304503
0.250098,-0.315723
0.254005,-0.322001
0.257913,-0.323732
0.261821,-0.323236
0.265729,-0.322805
0.269637,-0.323301
0.273544,-0.324356
0.277452,-0.325760
0.281360,-0.328558
0.285268,-0.334586
0.289175,-0.344589
0.293083,-0.356609
0.296991,-0.366446
0.300899,-0.370403
0.304807,-0.368264
0.308714,-0.363768
0.312622,-0.361619
0.316530,-0.363212
0.320438,-0.364967
0.324345,-0.361429
0.328253,-0.351079
0.332161,-0.339541
0.336069,-0.336179
0.339977,-0.345628
0.343884,-0.361384
0.347792,-0.368515
0.351700,-0.355466
0.355608,-0.325731
0.359515,-0.297140
0.363423,-0.284367
0.367331,-0.274828
0.371239,-0.218208
0.375147,-0.045339
0.379054,0.286881
0.382962,0.749338
0.386870,1.225865
0.390778,1.547863
0.394685,1.566896
0.398593,1.228001
0.402501,0.602338
0.406409,-0.140329
0.410317,-0.804511
0.414224,-1.247519
0.418132,-1.423809
0.422040,-1.378512
0.425948,-1.203570
0.429855,-0.987374
0.433763,-0.784847
0.437671,-0.615928
0.441579,-0.481531
0.445487,-0.379499
0.449394,-0.309959
0.453302,-0.271450
0.457210,-0.256173
0.461118,-0.250895
0.465025,-0.243172
0.468933,-0.227515
0.472841,-0.206603
0.476749,-0.187132
0.480657,-0.173987
0.484564,-0.167008
0.488472,-0.161930
0.492380,-0.153864
0.496288,-0.140373
0.500195,-0.122321
0.504103,-0.102646
0.508011,-0.084399
0.511919,-0.069271
0.515826,-0.057057
0.519734,-0.045946
0.523642,-0.033342
0.527550,-0.016970
0.531458,0.004122
0.535365,0.029155
0.539273,0.056097
0.543181,0.082809
0.547089,0.108095
0.550996,0.131957
0.554904,0.155040
0.558812,0.177883
0.562720,0.200723
0.566628,0.223895
0.570535,0.248251
0.574443,0.274859
0.578351,0.303912
0.582259,0.333636
0.586166,0.360298
0.590074,0.379737
0.593982,0.389572
0.597890,0.390547
0.601798,0.385985
0.605705,0.379747
0.609613,0.374116
0.613521,0.368954
0.617429,0.362454
0.621336,0.352735
0.625244,0.339133
0.629152,0.322466
0.633060,0.304318
0.636968,0.285932
0.640875,0.267323
0.644783,0.246985
0.648691,0.222274
0.652599,0.190412
0.656506,0.149877
0.660414,0.101626
0.664322,0.049387
0.668230,-0.001497
0.672138,-0.046336
0.676045,-0.083290
0.679953,-0.114102
0.683861,-0.142768
0.687769,-0.172866
0.691676,-0.205181
0.695584,-0.237179
0.699492,-0.264653
0.703400,-0.284381
0.707308,-0.295999
0.711215,-0.301854
0.715123,-0.305123
0.719031,-0.307682
0.722939,-0.309341
0.726846,-0.308863
0.730754,-0.305691
0.734662,-0.300787
0.738570,-0.295867
0.742478,-0.291802
0.746385,-0.287772
0.750293,-0.282084
0.754201,-0.274068
0.758109,-0.265332
0.762016,-0.259071
0.765924,-0.257721
0.769832,-0.260827
0.773740,-0.265004
0.777648,-0.266253
0.781555,-0.262901
0.785463,-0.256868
0.789371,-0.252253
0.793279,-0.252370
0.797186,-0.257503
0.801094,-0.264943
0.805002,-0.271102
0.808910,-0.274004
0.812818,-0.274433
0.816725,-0.275057
0.820633,-0.278345
0.824541,-0.284800
0.828449,-0.292700
0.832356,-0.299391
0.836264,-0.303135
0.840172,-0.304192
0.844080,-0.304423
0.847987,-0.305782
0.851895,-0.308809
0.855803,-0.312228
0.859711,-0.313901
0.863619,-0.312385
0.867526,-0.307974
0.871434,-0.302502
0.875342,-0.298084
0.879250,-0.295669
0.883157,-0.294353
0.887065,-0.291867
0.890973,-0.285959
0.894881,-0.275938
0.898789,-0.263510
0.902696,-0.252393
0.906604,-0.246743
0.910512,-0.249120
0.914420,-0.259039
0.918327,-0.272957
0.922235,-0.285870
0.926143,-0.293741
0.930051,-0.295432
0.933959,-0.292953
0.937866,-0.289868
0.941774,-0.288979
0.945682,-0.290933
0.949590,-0.294631
0.953497,-0.298823
0.957405,-0.303305
0.961313,-0.308605
0.965221,-0.314653
0.969129,-0.320005
0.973036,-0.322771
0.976944,-0.322598
0.980852,-0.321639
0.984760,-0.322981
0.988667,-0.327377
0.992575,-0.331281
0.996483,-0.328830
1.000391,-0.317136
1.004299,-0.300616
1.008206,-0.289613
1.012114,-0.292752
1.016022,-0.308437
1.019930,-0.323415
1.023837,-0.321793
1.027745,-0.298749
1.031653,-0.266650
1.035561,-0.244444
1.039469,-0.233916
1.043376,-0.200317
1.047284,-0.077632
1.051192,0.194950
1.055100,0.622074
1.059007,1.119712
1.062915,1.529153
1.066823,1.679486
1.070731,1.468975
1.074639,0.920228
1.078546,0.176555
1.082454,-0.559520
1.086362,-1.111526
1.090270,-1.392655
1.094177,-1.418760
1.098085,-1.273587
1.101993,-1.054602
1.105901,-0.832105
1.109809,-0.638143
1.113716,-0.479413
1.117624,-0.355718
1.121532,-0.268720
1.125440,-0.218785
1.129347,-0.198460
1.133255,-0.192056
1.137163,-0.183156
1.141071,-0.163801
1.144979,-0.137573
1.148886,-0.114305
1.152794,-0.101187
1.156702,-0.097452
1.160610,-0.096106
1.164517,-0.090174
1.168425,-0.077749
1.172333,-0.062097
1.176241,-0.047659
1.180148,-0.035965
1.184056,-0.024782
1.187964,-0.010552
1.191872,0.008483
1.195780,0.031104
1.199687,0.054466
1.203595,0.076427
1.207503,0.096868
1.211411,0.117192
1.215318,0.138822
1.219226,0.162134
1.223134,0.186610
1.227042,0.211775
1.230950,0.237848
1.234857,0.265484
1.238765,0.294890
1.242673,0.325215
1.246581,0.354850
1.250488,0.382399
1.254396,0.407390
1.258304,0.430022
1.262212,0.450147
1.266120,0.466499
1.270027,0.477046
1.273935,0.480339
1.277843,0.476804
1.281751,0.468839
1.285658,0.459474
1.289566,0.450501
1.293474,0.441459
1.297382,0.430154
1.301290,0.414321
1.305197,0.393183
1.309105,0.367830
1.313013,0.340232
1.316921,0.311658
1.320828,0.281709
1.324736,0.248723
1.328644,0.211222
1.332552,0.169289
1.336460,0.124768
1.340367,0.080204
1.344275,0.037390
1.348183,-0.003333
1.352091,-0.042583
1.355998,-0.080780
1.359906,-0.117233
1.363814,-0.150104
1.367722,-0.177239
1.371630,-0.197350
1.375537,-0.210816
1.379445,-0.219611
1.383353,-0.226310
1.387261,-0.232757
1.391168,-0.239219
1.395076,-0.244511
1.398984,-0.246927
1.402892,-0.245304
1.406800,-0.239613
1.410707,-0.230922
1.414615,-0.220942
1.418523,-0.211457
1.422431,-0.203810
1.426338,-0.198517
1.430246,-0.195109
1.434154,-0.192343
1.438062,-0.188812
1.441970,-0.183750
1.445877,-0.177570
1.449785,-0.171740
1.453693,-0.167983
1.457601,-0.167274
1.461508,-0.169290
1.465416,-0.172663
1.469324,-0.175889
1.473232,-0.178251
1.477140,-0.180175
1.481047,-0.182792
1.484955,-0.187037
1.488863,-0.192908
1.492771,-0.199399
1.496678,-0.205168
1.500586,-0.209471
1.504494,-0.212692
1.508402,-0.216044
1.512309,-0.220608
1.516217,-0.226390
1.520125,-0.232143
1.524033,-0.236151
1.527941,-0.237408
1.531848,-0.236322
1.535756,-0.234444
1.539664,-0.233478
1.543572,-0.234312
1.547479,-0.236685
1.551387,-0.239587
1.555295,-0.241987
1.559203,-0.243337
1.563111,-0.243593
1.567018,-0.242835
1.570926,-0.240854
1.574834,-0.237022
1.578742,-0.230547
1.582649,-0.221008
1.586557,-0.208956
1.590465,-0.196279
1.594373,-0.185957
1.598281,-0.181055
1.602188,-0.183197
1.606096,-0.191359
1.610004,-0.201904
1.613912,-0.210134
1.617819,-0.212647
1.621727,-0.209094
1.625635,-0.202266
1.629543,-0.196453
1.633451,-0.195154
1.637358,-0.199546
1.641266,-0.208463
1.645174,-0.219508
1.649082,-0.230235
1.652989,-0.238629
1.656897,-0.243068
1.660805,-0.242535
1.664713,-0.237515
1.668621,-0.230788
1.672528,-0.226749
1.676436,-0.228682
1.680344,-0.235626
1.684252,-0.241785
1.688159,-0.240221
1.692067,-0.228890
1.695975,-0.214002
1.699883,-0.206616
1.703791,-0.213671
1.707698,-0.230442
1.711606,-0.241982
1.715514,-0.234565
1.719422,-0.208598
1.723329,-0.180294
1.727237,-0.165921
1.731145,-0.156805
1.735053,-0.105067
1.738961,0.061687
1.742868,0.396067
1.746776,0.879577
1.750684,1.398875
1.754592,1.773673
1.758499,1.830782
1.762407,1.488527
1.766315,0.805084
1.770223,-0.038096
1.774131,-0.810814
1.778038,-1.327766
1.781946,-1.513879
1.785854,-1.412809
1.789762,-1.143152
1.793669,-0.833269
1.797577,-0.570650
1.801485,-0.385924
1.805393,-0.268061
1.809301,-0.191819
1.813208,-0.138190
1.817116,-0.099802
1.821024,-0.075412
1.824932,-0.062805
1.828839,-0.056482
1.832747,-0.050257
1.836655,-0.040857
1.840563,-0.028959
1.844470,-0.017213
1.848378,-0.007360
1.852286,0.001148
1.856194,0.010353
1.860102,0.021937
1.864009,0.035958
1.867917,0.051014
1.871825,0.065418
1.875733,0.078381
1.879640,0.090465
1.883548,0.103248
1.887456,0.118567
1.891364,0.137744
1.895272,0.161044
1.899179,0.187559
1.903087,0.215545
1.906995,0.243098
1.910903,0.268868
1.914810,0.292502
1.918718,0.314665
1.922626,0.336678
1.926534,0.359929
1.930442,0.385263
1.934349,0.412569
1.938257,0.440729
1.942165,0.467943
1.946073,0.492294
1.949980,0.512326
1.953888,0.527407
1.957796,0.537750
1.961704,0.544121
1.965612,0.547325
1.969519,0.547719
1.973427,0.544997
1.977335,0.538491
1.981243,0.527884
1.985150,0.513834
1.989058,0.497941
1.992966,0.481925
1.996874,0.466504
2.000782,0.450740
2.004689,0.432373
2.008597,0.408980
2.012505,0.379256
2.016413,0.343640
2.020320,0.303963
2.024228,0.262446
2.028136,0.220743
2.032044,0.179586
2.035952,0.139095
2.039859,0.099368
2.043767,0.060878
2.047675,0.024484
2.051583,-0.008843
2.055490,-0.038273
2.059398,-0.063188
2.063306,-0.083164
2.067214,-0.098088
2.071122,-0.108463
2.075029,-0.115610
2.078937,-0.121357
2.082845,-0.127143
2.086753,-0.133129
2.090660,-0.138055
2.094568,-0.140129
2.098476,-0.138365
2.102384,-0.133418
2.106292,-0.127309
2.110199,-0.122176
2.114107,-0.118907
2.118015,-0.116620
2.121923,-0.113437
2.125830,-0.108044
2.129738,-0.100859
2.133646,-0.093901
2.137554,-0.089434
2.141462,-0.088436
2.145369,-0.090020
2.149277,-0.092154
2.153185,-0.093058
2.157093,-0.092285
2.161000,-0.090864
2.164908,-0.090548
2.168816,-0.092703
2.172724,-0.097546
2.176631,-0.104132
2.180539,-0.111047
2.184447,-0.117265
2.188355,-0.122570
2.192263,-0.127341
2.196170,-0.132011
2.200078,-0.136645
2.203986,-0.140893
2.207894,-0.144218
2.211801,-0.146204
2.215709,-0.146793
2.219617,-0.146385
2.223525,-0.145772
2.227433,-0.145831
2.231340,-0.147101
2.235248,-0.149450
2.239156,-0.152115
2.243064,-0.154154
2.246971,-0.155058
2.250879,-0.155061
2.254787,-0.154884
2.258695,-0.154998
2.262603,-0.154934
2.266510,-0.153183
2.270418,-0.147911
2.274326,-0.138136
2.278234,-0.124698
2.282141,-0.110367
2.286049,-0.098891
2.289957,-0.093397
2.293865,-0.094967
2.297773,-0.102164
2.301680,-0.111776
2.305588,-0.120317
2.309496,-0.125450
2.313404,-0.126659
2.317311,-0.124989
2.321219,-0.122175
2.325127,-0.119731
2.329035,-0.118534
2.332943,-0.119031
2.336850,-0.121681
2.340758,-0.126972
2.344666,-0.134742
2.348574,-0.143384
2.352481,-0.149988
2.356389,-0.151902
2.360297,-0.148887
2.364205,-0.143981
2.368113,-0.141729
2.372020,-0.144485
2.375928,-0.149703
2.379836,-0.151116
2.383744,-0.143886
2.387651,-0.129881
2.391559,-0.117964
2.395467,-0.117579
2.399375,-0.129958
2.403283,-0.144835
2.407190,-0.147307
2.411098,-0.130776
2.415006,-0.104501
2.418914,-0.085682
2.422821,-0.077501
2.426729,-0.048667
2.430637,0.065033
2.434545,0.327897
2.438453,0.753297
2.442360,1.266039
2.446268,1.708794
2.450176,1.900077
2.454084,1.718717
2.457991,1.169475
2.461899,0.391387
2.465807,-0.398275
2.469715,-0.995197
2.473623,-1.286589
2.477530,-1.279390
2.481438,-1.071303
2.485346,-0.789026
2.489254,-0.530952
2.493161,-0.341039
2.497069,-0.217071
2.500977,-0.136850
2.504885,-0.081197
2.508792,-0.042104
2.512700,-0.018073
2.516608,-0.006428
2.520516,-0.000643
2.524424,0.006389
2.528331,0.017785
2.532239,0.031518
2.536147,0.043454
2.540055,0.051478
2.543962,0.057155
2.547870,0.063960
2.551778,0.074146
2.555686,0.087118
2.559594,0.100435
2.563501,0.112149
2.567409,0.122316
2.571317,0.132642
2.575225,0.144996
2.579132,0.160217
2.583040,0.177981
2.586948,0.197426
2.590856,0.217778
2.594764,0.238608
2.598671,0.259824
2.602579,0.281580
2.606487,0.304171
2.610395,0.327854
2.614302,0.352686
2.618210,0.378501
2.622118,0.404977
2.626026,0.431626
2.629934,0.457644
2.633841,0.481868
2.637749,0.503059
2.641657,0.520400
2.645565,0.533763
2.649472,0.543487
2.653380,0.549894
2.657288,0.553054
2.661196,0.553004
2.665104,0.550147
2.669011,0.545328
2.672919,0.539462
2.676827,0.532968
2.680735,0.525510
2.684642,0.516242
2.688550,0.504360
2.692458,0.489537
2.696366,0.471889
2.700274,0.451531
2.704181,0.428115
2.708089,0.400819
2.711997,0.368846
2.715905,0.332056
2.719812,0.291230
2.723720,0.247834
2.727628,0.203580
2.731536,0.160141
2.735444,0.119106
2.739351,0.081924
2.743259,0.049681
2.747167,0.022771
2.751075,0.000759
2.754982,-0.017379
2.758890,-0.032724
2.762798,-0.045890
2.766706,-0.056875
2.770614,-0.065362
2.774521,-0.071208
2.778429,-0.074708
2.782337,-0.076448
2.786245,-0.076946
2.790152,-0.076444
2.794060,-0.075020
2.797968,-0.072849
2.801876,-0.070352
2.805784,-0.068089
2.809691,-0.066448
2.813599,-0.065351
2.817507,-0.064235
2.821415,-0.062409
2.825322,-0.059623
2.829230,-0.056406
2.833138,-0.053839
2.837046,-0.052862
2.840953,-0.053601
2.844861,-0.055250
2.848769,-0.056652
2.852677,-0.057128
2.856585,-0.056979
2.860492,-0.057313
2.864400,-0.059373
2.868308,-0.063818
2.872216,-0.070388
2.876123,-0.078099
2.880031,-0.085798
2.883939,-0.092699
2.887847,-0.098584
2.891755,-0.103607
2.895662,-0.107948
2.899570,-0.111632
2.903478,-0.114618
2.907386,-0.117006
2.911293,-0.119137
2.915201,-0.121485
2.919109,-0.124412
2.923017,-0.127932
2.926925,-0.131642
2.930832,-0.134885
2.934740,-0.137058
2.938648,-0.137929
2.942556,-0.137788
2.946463,-0.137307
2.950371,-0.137133
2.954279,-0.137359
2.958187,-0.137169
2.962095,-0.134931
2.966002,-0.128841
2.969910,-0.117967
2.973818,-0.103225
2.977726,-0.087687
2.981633,-0.075783
2.985541,-0.071494
2.989449,-0.076322
2.993357,-0.088184
2.997265,-0.102067
3.001172,-0.112360
3.005080,-0.115701
3.008988,-0.112639
3.012896,-0.107034
3.016803,-0.103522
3.020711,-0.104761
3.024619,-0.110327
3.028527,-0.117915
3.032435,-0.125623
3.036342,-0.133276
3.040250,-0.141681
3.044158,-0.150722
3.048066,-0.158385
3.051973,-0.162016
3.055881,-0.160918
3.059789,-0.157763
3.063697,-0.156938
3.067605,-0.160633
3.071512,-0.166022
3.075420,-0.166750
3.079328,-0.158501
3.083236,-0.144245
3.087143,-0.133833
3.091051,-0.136710
3.094959,-0.152871
3.098867,-0.170312
3.102775,-0.173117
3.106682,-0.155080
3.110590,-0.126728
3.114498,-0.106112
3.118406,-0.096011
3.122313,-0.064108
3.126221,0.053692
3.130129,0.319122
3.134037,0.741381
3.137945,1.242637
3.141852,1.667907
3.145760,1.843861
3.149668,1.659826
3.153576,1.127055
3.157483,0.381711
3.161391,-0.371545
3.165299,-0.945042
3.169207,-1.237743
3.173114,-1.256697
3.177022,-1.087811
3.180930,-0.840645
3.184838,-0.600479
3.188746,-0.408605
3.192653,-0.270416
3.196561,-0.175550
3.200469,-0.113317
3.204377,-0.076633
3.208284,-0.058648
3.212192,-0.050116
3.216100,-0.041519
3.220008,-0.027633
3.223916,-0.009680
3.227823,0.007193
3.231731,0.018926
3.235639,0.025849
3.239547,0.031901
3.243454,0.040981
3.247362,0.053813
3.251270,0.067817
3.255178,0.079719
3.259086,0.088467
3.262993,0.096079
3.266901,0.106033
3.270809,0.120754
3.274717,0.140221
3.278624,0.162497
3.282532,0.185393
3.286440,0.207810
3.290348,0.229901
3.294256,0.252280
3.298163,0.275197
3.302071,0.298355
3.305979,0.321342
3.309887,0.344172
3.313794,0.367432
3.317702,0.391976
3.321610,0.418356
3.325518,0.446348
3.329426,0.474780
3.333333,0.501738
3.337241,0.525045
3.341149,0.542828
3.345057,0.554030
3.348964,0.558734
3.352872,0.558164
3.356780,0.554301
3.360688,0.549146
3.364596,0.543919
3.368503,0.538613
3.372411,0.532178
3.376319,0.523241
3.380227,0.510910
3.384134,0.495119
3.388042,0.476311
3.391950,0.454733
3.395858,0.429949
3.399766,0.401017
3.403673,0.367266
3.407581,0.329091
3.411489,0.288150
3.415397,0.246744
3.419304,0.206768
3.423212,0.168881
3.427120,0.132385
3.431028,0.095852
3.434936,0.058137
3.438843,0.019321
3.442751,-0.018884
3.446659,-0.053538
3.450567,-0.081634
3.454474,-0.101465
3.458382,-0.113434
3.462290,-0.119761
3.466198,-0.123237
3.470106,-0.125801
3.474013,-0.127828
3.477921,-0.128534
3.481829,-0.127098
3.485737,-0.123637
3.489644,-0.119339
3.493552,-0.115705
3.497460,-0.113535
3.501368,-0.112445
3.505275,-0.111274
3.509183,-0.109075
3.513091,-0.105911
3.516999,-0.102797
3.520907,-0.100822
3.524814,-0.100173
3.528722,-0.099862
3.532630,-0.098397
3.536538,-0.094836
3.540445,-0.089459
3.544353,-0.083618
3.548261,-0.079004
3.552169,-0.076908
3.556077,-0.077903
3.559984,-0.081973
3.563892,-0.088730
3.567800,-0.097449
3.571708,-0.106934
3.575615,-0.115572
3.579523,-0.121829
3.583431,-0.125008
3.587339,-0.125677
3.591247,-0.125319
3.595154,-0.125357
3.599062,-0.126304
3.602970,-0.127691
3.606878,-0.128788
3.610785,-0.129420
3.614693,-0.130137
3.618601,-0.131556
3.622509,-0.133498
3.626417,-0.134718
3.630324,-0.133566
3.634232,-0.129131
3.638140,-0.121991
3.642048,-0.113980
3.645955,-0.107053
3.649863,-0.102031
3.653771,-0.098141
3.657679,-0.093751
3.661587,-0.087836
3.665494,-0.081075
3.669402,-0.075736
3.673310,-0.074370
3.677218,-0.078253
3.681125,-0.086635
3.685033,-0.097222
3.688941,-0.107432
3.692849,-0.115551
3.696757,-0.121114
3.700664,-0.124515
3.704572,-0.126403
3.708480,-0.127436
3.712388,-0.128452
3.716295,-0.130532
3.720203,-0.134471
3.724111,-0.139918
3.728019,-0.145172
3.731927,-0.148364
3.735834,-0.149374
3.739742,-0.150615
3.743650,-0.155292
3.747558,-0.163935
3.751465,-0.172216
3.755373,-0.172827
3.759281,-0.161125
3.763189,-0.140446
3.767097,-0.121993
3.771004,-0.117681
3.774912,-0.130365
3.778820,-0.149510
3.782728,-0.157558
3.786635,-0.143839
3.790543,-0.114776
3.794451,-0.089176
3.798359,-0.077662
3.802267,-0.059786
3.806174,0.020648
3.810082,0.229953
3.813990,0.597255
3.817898,1.073516
3.821805,1.527563
3.825713,1.790937
3.829621,1.733164
3.833529,1.327466
3.837436,0.669358
3.841344,-0.063138
3.845252,-0.685501
3.849160,-1.077596
3.853068,-1.214828
3.856975,-1.151312
3.860883,-0.974357
3.864791,-0.760794
3.868699,-0.556421
3.872606,-0.379954
3.876514,-0.237735
3.880422,-0.133906
3.884330,-0.070383
3.888238,-0.041784
3.892145,-0.033892
3.896053,-0.029248
3.899961,-0.016022
3.903869,0.006845
3.907776,0.032009
3.911684,0.051188
3.915592,0.061695
3.919500,0.067479
3.923408,0.074932
3.927315,0.087652
3.931223,0.104400
3.935131,0.121236
3.939039,0.135323
3.942946,0.147067
3.946854,0.159234
3.950762,0.174398
3.954670,0.193096
3.958578,0.213947
3.962485,0.235148
3.966393,0.255831
3.970301,0.276344
3.974209,0.297586
3.978116,0.320187
3.982024,0.344170
3.985932,0.369160
3.989840,0.394821
3.993748,0.421140
3.997655,0.448379
4.001563,0.476757
4.005471,0.506050
4.009379,0.535344
4.013286,0.563116
4.017194,0.587656
4.021102,0.607623
4.025010,0.622423
4.028918,0.632154
4.032825,0.637206
4.036733,0.637902
4.040641,0.634455
4.044549,0.627208
4.048456,0.616808
4.052364,0.604075
4.056272,0.589630
4.060180,0.573584
4.064088,0.555497
4.067995,0.534618
4.071903,0.510202
4.075811,0.481732
4.079719,0.449068
4.083626,0.412544
4.087534,0.373036
4.091442,0.331837
4.095350,0.290296
4.099258,0.249334
4.103165,0.209153
4.107073,0.169343
4.110981,0.129409
4.114889,0.089451
4.118796,0.050616
4.122704,0.014978
4.126612,-0.015221
4.130520,-0.038599
4.134428,-0.055298
4.138335,-0.066828
4.142243,-0.075210
4.146151,-0.081954
4.150059,-0.087500
4.153966,-0.091350
4.157874,-0.092726
4.161782,-0.091265
4.165690,-0.087360
4.169597,-0.081970
4.173505,-0.076118
4.177413,-0.070440
4.181321,-0.065063
4.185229,-0.059800
4.189136,-0.054465
4.193044,-0.049054
4.196952,-0.043727
4.200860,-0.038687
4.204767,-0.034141
4.208675,-0.030399
4.212583,-0.027970
4.216491,-0.027448
4.220399,-0.029151
4.224306,-0.032772
4.228214,-0.037396
4.232122,-0.041941
4.236030,-0.045756
4.239937,-0.048918
4.243845,-0.052061
4.247753,-0.055866
4.251661,-0.060597
4.255569,-0.065984
4.259476,-0.071529
4.263384,-0.076926
4.267292,-0.082182
4.271200,-0.087317
4.275107,-0.091989
4.279015,-0.095500
4.282923,-0.097292
4.286831,-0.097525
4.290739,-0.097236
4.294646,-0.097900
4.298554,-0.100607
4.302462,-0.105378
4.306370,-0.111009
4.310277,-0.115612
4.314185,-0.117606
4.318093,-0.116612
4.322001,-0.113651
4.325909,-0.110420
4.329816,-0.108065
4.333724,-0.106267
4.337632,-0.103320
4.341540,-0.097199
4.345447,-0.087003
4.349355,-0.073930
4.353263,-0.061151
4.357171,-0.052528
4.361079,-0.050740
4.364986,-0.055805
4.368894,-0.064961
4.372802,-0.074100
4.376710,-0.079985
4.380617,-0.081878
4.384525,-0.081520
4.388433,-0.081555
4.392341,-0.083569
4.396249,-0.087190
4.400156,-0.090879
4.404064,-0.093680
4.407972,-0.096322
4.411880,-0.100535
4.415787,-0.107062
4.419695,-0.114222
4.423603,-0.118723
4.427511,-0.118430
4.431419,-0.114733
4.435326,-0.111994
4.439234,-0.113927
4.443142,-0.119801
4.447050,-0.124223
4.450957,-0.121541
4.454865,-0.111583
4.458773,-0.101322
4.462681,-0.099802
4.466589,-0.109627
4.470496,-0.122543
4.474404,-0.124598
4.478312,-0.108335
4.482220,-0.081532
4.486127,-0.061706
4.490035,-0.055654
4.493943,-0.037546
4.497851,0.053891
4.501758,0.287179
4.505666,0.688220
4.509574,1.198033
4.513482,1.670250
4.517390,1.920720
4.521297,1.809773
4.525205,1.314348
4.529113,0.548975
4.533021,-0.278107
4.536928,-0.951251
4.540836,-1.331137
4.544744,-1.395343
4.548652,-1.222133
4.552560,-0.935291
4.556467,-0.644735
4.560375,-0.412169
4.564283,-0.250411
4.568191,-0.144519
4.572098,-0.074966
4.576006,-0.029334
4.579914,-0.001577
4.583822,0.013572
4.587730,0.023291
4.591637,0.034489
4.595545,0.050091
4.599453,0.067988
4.603361,0.083744
4.607268,0.094605
4.611176,0.101499
4.615084,0.107791
4.618992,0.116360
4.622900,0.127647
4.626807,0.140062
4.630715,0.151986
4.634623,0.163411
4.638531,0.175927
4.642438,0.191317
4.646346,0.210128
4.650254,0.231381
4.654162,0.253482
4.658070,0.275441
4.661977,0.297404
4.665885,0.320231
4.669793,0.344650
4.673701,0.370734
4.677608,0.397998
4.681516,0.425874
4.685424,0.454056
4.689332,0.482470
4.693240,0.510972
4.697147,0.539053
4.701055,0.565802
4.704963,0.590195
4.708871,0.611543
4.712778,0.629729
4.716686,0.644985
4.720594,0.657303
4.724502,0.665983
4.728410,0.669759
4.732317,0.667506
4.736225,0.659048
4.740133,0.645515
4.744041,0.628992
4.747948,0.611706
4.751856,0.595175
4.755764,0.579691
4.759672,0.564267
4.763580,0.546993
4.767487,0.525682
4.771395,0.498592
4.775303,0.464991
4.779211,0.425363
4.783118,0.381228
4.787026,0.334728
4.790934,0.288139
4.794842,0.243397
4.798750,0.201722
4.802657,0.163485
4.806565,0.128405
4.810473,0.096037
4.814381,0.066270
4.818288,0.039565
4.822196,0.016762
4.826104,-0.001410
4.830012,-0.014789
4.833919,-0.023897
4.837827,-0.029689
4.841735,-0.033166
4.845643,-0.035096
4.849551,-0.035907
4.853458,-0.035756
4.857366,-0.034742
4.861274,-0.033157
4.865182,-0.031572
4.869089,-0.030593
4.872997,-0.030392
4.876905,-0.030390
4.880813,-0.029396
4.884721,-0.026221
4.888628,-0.020422
4.892536,-0.012763
4.896444,-0.005088
4.900352,0.000401
4.904259,0.002139
4.908167,-0.000042
4.912075,-0.004823
4.915983,-0.010073
4.919891,-0.013950
4.923798,-0.015775
4.927706,-0.016175
4.931614,-0.016432
4.935522,-0.017539
4.939429,-0.019669
4.943337,-0.022374
4.947245,-0.025260
4.951153,-0.028501
4.955061,-0.032746
4.958968,-0.038495
4.962876,-0.045497
4.966784,-0.052681
4.970692,-0.058698
4.974599,-0.062692
4.978507,-0.064728
4.982415,-0.065635
4.986323,-0.066436
4.990231,-0.067762
4.994138,-0.069601
4.998046,-0.071451
5.001954,-0.072692
5.005862,-0.072916
5.009769,-0.072078
5.013677,-0.070495
5.017585,-0.068708
5.021493,-0.067188
5.025401,-0.065947
5.029308,-0.064230
5.033216,-0.060568
5.037124,-0.053372
5.041032,-0.041974
5.044939,-0.027628
5.048847,-0.013746
5.052755,-0.004843
5.056663,-0.004373
5.060571,-0.012619
5.064478,-0.026069
5.068386,-0.039013
5.072294,-0.046570
5.076202,-0.047249
5.080109,-0.043383
5.084017,-0.039194
5.087925,-0.037971
5.091833,-0.040366
5.095741,-0.044891
5.099648,-0.049895
5.103556,-0.055150
5.107464,-0.061572
5.111372,-0.069428
5.115279,-0.076941
5.119187,-0.081032
5.123095,-0.079939
5.127003,-0.075380
5.130911,-0.071855
5.134818,-0.073022
5.138726,-0.078082
5.142634,-0.081770
5.146542,-0.078807
5.150449,-0.069384
5.154357,-0.060366
5.158265,-0.059946
5.162173,-0.069529
5.166081,-0.080408
5.169988,-0.079954
5.173896,-0.063512
5.177804,-0.040909
5.181712,-0.027909
5.185619,-0.024499
5.189527,0.004202
5.193435,0.124310
5.197343,0.398630
5.201250,0.835562
5.205158,1.353405
5.209066,1.789894
5.212974,1.962749
5.216882,1.754738
5.220789,1.177667
5.224697,0.377806
5.228605,-0.422873
5.232513,-1.019224
5.236420,-1.300998
5.240328,-1.279262
5.244236,-1.055449
5.248144,-0.758501
5.252052,-0.487681
5.255959,-0.287237
5.259867,-0.155312
5.263775,-0.070168
5.267683,-0.012776
5.271590,0.025400
5.275498,0.046995
5.279406,0.055934
5.283314,0.059541
5.287222,0.065019
5.291129,0.075110
5.295037,0.087505
5.298945,0.098311
5.302853,0.106116
5.306760,0.113084
5.310668,0.122594
5.314576,0.135983
5.318484,0.151410
5.322392,0.165601
5.326299,0.176700
5.330207,0.185711
5.334115,0.195536
5.338023,0.208686
5.341930,0.225637
5.345838,0.245006
5.349746,0.265074
5.353654,0.285207
5.357562,0.306038
5.361469,0.328459
5.365377,0.352526
5.369285,0.377293
5.373193,0.401702
5.377100,0.425628
5.381008,0.450075
5.384916,0.476267
5.388824,0.504361
5.392732,0.532850
5.396639,0.559201
5.400547,0.581239
5.404455,0.598183
5.408363,0.610595
5.412270,0.619402
5.416178,0.624936
5.420086,0.626766
5.423994,0.624349
5.427902,0.617828
5.431809,0.608258
5.435717,0.597115
5.439625,0.585537
5.443533,0.573865
5.447440,0.561700
5.451348,0.548248
5.455256,0.532618
5.459164,0.513970
5.463072,0.491630
5.466979,0.465233
5.470887,0.434815
5.474795,0.400743
5.478703,0.363545
5.482610,0.323809
5.486518,0.282207
5.490426,0.239603
5.494334,0.197123
5.498242,0.156151
5.502149,0.118198
5.506057,0.084589
5.509965,0.056023
5.513873,0.032288
5.517780,0.012458
5.521688,-0.004430
5.525596,-0.018652
5.529504,-0.029608
5.533411,-0.036399
5.537319,-0.038806
5.541227,-0.037923
5.545135,-0.035909
5.549043,-0.034883
5.552950,-0.035671
5.556858,-0.037264
5.560766,-0.037477
5.564674,-0.034432
5.568581,-0.027906
5.572489,-0.019642
5.576397,-0.012450
5.580305,-0.008704
5.584213,-0.009167
5.588120,-0.012771
5.592028,-0.017342
5.595936,-0.020696
5.599844,-0.021490
5.603751,-0.019560
5.607659,-0.015849
5.611567,-0.012110
5.615475,-0.010366
5.619383,-0.012099
5.623290,-0.017453
5.627198,-0.025017
5.631106,-0.032528
5.635014,-0.038210
5.638921,-0.041887
5.642829,-0.045042
5.646737,-0.049736
5.650645,-0.057067
5.654553,-0.066278
5.658460,-0.075149
5.662368,-0.081401
5.666276,-0.084102
5.670184,-0.084111
5.674091,-0.083351
5.677999,-0.083534
5.681907,-0.085218
5.685815,-0.087731
5.689723,-0.089857
5.693630,-0.090744
5.697538,-0.090465
5.701446,-0.089956
5.705354,-0.090441
5.709261,-0.092691
5.713169,-0.096506
5.717077,-0.100669
5.720985,-0.103356
5.724893,-0.102775
5.728800,-0.097766
5.732708,-0.088218
5.736616,-0.075274
5.740524,-0.061239
5.744431,-0.049089
5.748339,-0.041586
5.752247,-0.040244
5.756155,-0.044682
5.760063,-0.052739
5.763970,-0.061431
5.767878,-0.068259
5.771786,-0.072227
5.775694,-0.073967
5.779601,-0.074964
5.783509,-0.076411
5.787417,-0.078546
5.791325,-0.080925
5.795233,-0.083336
5.799140,-0.086449
5.803048,-0.091435
5.806956,-0.098729
5.810864,-0.107004
5.814771,-0.113558
5.818679,-0.116227
5.822587,-0.115401
5.826495,-0.114136
5.830403,-0.115682
5.834310,-0.120181
5.838218,-0.123698
5.842126,-0.121241
5.846034,-0.111828
5.849941,-0.100964
5.853849,-0.097211
5.857757,-0.104563
5.861665,-0.117143
5.865572,-0.122279
5.869480,-0.111372
5.873388,-0.089622
5.877296,-0.073517
5.881204,-0.072909
5.885111,-0.068497
5.889019,-0.004582
5.892927,0.188537
5.896835,0.547634
5.900742,1.031406
5.904650,1.509929
5.908558,1.805434
5.912466,1.770268
5.916374,1.361929
5.920281,0.672437
5.924189,-0.106598
5.928097,-0.765368
5.932005,-1.160245
5.935912,-1.258664
5.939820,-1.127713
5.943728,-0.882070
5.947636,-0.625749
5.951544,-0.417764
5.955451,-0.271070
5.959359,-0.173053
5.963267,-0.107612
5.967175,-0.065439
5.971082,-0.042063
5.974990,-0.031953
5.978898,-0.026567
5.982806,-0.017894
5.986714,-0.003178
5.990621,0.014073
5.994529,0.027853
5.998437,0.034886
6.002345,0.037033
6.006252,0.039327
6.010160,0.045822
6.014068,0.056904
6.017976,0.069952
6.021884,0.082211
6.025791,0.093123
6.029699,0.104326
6.033607,0.117804
6.037515,0.134080
6.041422,0.151991
6.045330,0.169972
6.049238,0.187577
6.053146,0.205898
6.057054,0.226589
6.060961,0.250338
6.064869,0.276024
6.068777,0.301228
6.072685,0.323709
6.076592,0.342808
6.080500,0.359897
6.084408,0.377649
6.088316,0.398625
6.092224,0.423864
6.096131,0.452113
6.100039,0.480048
6.103947,0.503472
6.107855,0.519047
6.111762,0.525729
6.115670,0.525104
6.119578,0.520367
6.123486,0.514523
6.127394,0.508903
6.131301,0.502908
6.135209,0.495038
6.139117,0.484394
6.143025,0.471495
6.146932,0.457801
6.150840,0.444341
6.154748,0.430527
6.158656,0.414114
6.162564,0.392381
6.166471,0.363688
6.170379,0.328331
6.174287,0.288188
6.178195,0.245592
6.182102,0.202311
6.186010,0.159260
6.189918,0.116833
6.193826,0.075341
6.197733,0.035189
6.201641,-0.003147
6.205549,-0.039124
6.209457,-0.071970
6.213365,-0.100486
6.217272,-0.123109
6.221180,-0.138448
6.225088,-0.146191
6.228996,-0.147803
6.232903,-0.146330
6.236811,-0.145149
6.240719,-0.146350
6.244627,-0.149863
6.248535,-0.153948
6.252442,-0.156657
6.256350,-0.157156
6.260258,-0.156009
6.264166,-0.154401
6.268073,-0.153068
6.271981,-0.151882
6.275889,-0.150345
6.279797,-0.148443
6.283705,-0.146935
6.287612,-0.146735
6.291520,-0.147902
6.295428,-0.149262
6.299336,-0.149169
6.303243,-0.146951
6.307151,-0.143838
6.311059,-0.142467
6.314967,-0.145139
6.318875,-0.152031
6.322782,-0.160767
6.326690,-0.167769
6.330598,-0.170550
6.334506,-0.169348
6.338413,-0.166953
6.342321,-0.166808
6.346229,-0.170711
6.350137,-0.177725
6.354045,-0.185044
6.357952,-0.190111
6.361860,-0.192423
6.365768,-0.193802
6.369676,-0.197052
6.373583,-0.204001
6.377491,-0.214194
6.381399,-0.224960
6.385307,-0.232744
6.389215,-0.234921
6.393122,-0.231105
6.397030,-0.223287
6.400938,-0.214748
6.404846,-0.208403
6.408753,-0.205525
6.412661,-0.205506
6.416569,-0.206622
6.420477,-0.207178
6.424385,-0.206251
6.428292,-0.203729
6.432200,-0.199929
6.436108,-0.195360
6.440016,-0.190873
6.443923,-0.187904
6.447831,-0.188207
6.451739,-0.192906
6.455647,-0.201414
6.459555,-0.211154
6.463462,-0.218613
6.467370,-0.221268
6.471278,-0.219149
6.475186,-0.214869
6.479093,-0.212027
6.483001,-0.213083
6.486909,-0.218144
6.490817,-0.225376
6.494725,-0.232455
6.498632,-0.237869
6.502540,-0.241286
6.506448,-0.243225
6.510356,-0.244714
6.514263,-0.247164
6.518171,-0.251913
6.522079,-0.258981
6.525987,-0.265770
6.529894,-0.267436
6.533802,-0.259952
6.537710,-0.244291
6.541618,-0.227975
6.545526,-0.221123
6.549433,-0.228589
6.553341,-0.244328
6.557249,-0.254095
6.561157,-0.246339
6.565064,-0.222924
6.568972,-0.198457
6.572880,-0.184124
6.576788,-0.165481
6.580696,-0.093275
6.584603,0.097714
6.588511,0.444973
6.592419,0.913919
6.596327,1.384877
6.600234,1.689085
6.604142,1.681797
6.608050,1.314732
6.611958,0.666446
6.615866,-0.088128
6.619773,-0.752663
6.623681,-1.187890
6.627589,-1.353513
6.631497,-1.298449
6.635404,-1.115022
6.639312,-0.889438
6.643220,-0.674823
6.647128,-0.492424
6.651036,-0.347746
6.654943,-0.243684
6.658851,-0.182038
6.662759,-0.157699
6.666667,-0.155549
6.670574,-0.155651
6.674482,-0.143506
6.678390,-0.117198
6.682298,-0.085960
6.686206,-0.061715
6.690113,-0.050359
6.694021,-0.048876
6.697929,-0.049213
6.701837,-0.044759
6.705744,-0.034154
6.709652,-0.020228
6.713560,-0.006035
6.717468,0.008203
6.721376,0.024873
6.725283,0.046226
6.729191,0.071827
6.733099,0.098368
6.737007,0.121811
6.740914,0.139988
6.744822,0.153766
6.748730,0.166231
6.752638,0.180825
6.756546,0.199791
6.760453,0.223684
6.764361,0.251785
6.768269,0.282706
6.772177,0.314724
6.776084,0.345884
6.779992,0.374285
6.783900,0.398645
6.787808,0.418844
6.791716,0.435906
6.795623,0.451261
6.799531,0.465683
6.803439,0.478573
6.807347,0.488100
6.811254,0.492213
6.815162,0.489944
6.819070,0.482173
6.822978,0.471260
6.826886,0.459706
6.830793,0.448686
6.834701,0.437422
6.838609,0.423761
6.842517,0.405472
6.846424,0.381387
6.850332,0.351717
6.854240,0.317555
6.858148,0.280106
6.862055,0.240242
6.865963,0.198535
6.869871,0.155538
6.873779,0.111937
6.877687,0.068437
6.881594,0.025556
6.885502,-0.016395
6.889410,-0.057017
6.893318,-0.095396
6.897225,-0.129945
6.901133,-0.158820
6.905041,-0.180815
6.908949,-0.196193
6.912857,-0.206855
6.916764,-0.215607
6.920672,-0.224836
6.924580,-0.235320
6.928488,-0.245848
6.932395,-0.253848
6.936303,-0.256697
6.940211,-0.253035
6.944119,-0.243487
6.948027,-0.230477
6.951934,-0.217251
6.955842,-0.206594
6.959750,-0.199832
6.963658,-0.196600
6.967565,-0.195390
6.971473,-0.194531
6.975381,-0.192986
6.979289,-0.190597
6.983197,-0.187784
6.987104,-0.185077
6.991012,-0.182885
6.994920,-0.181621
6.998828,-0.181957
7.002735,-0.184833
7.006643,-0.190964
7.010551,-0.200086
7.014459,-0.210539
7.018367,-0.219761
7.022274,-0.225602
7.026182,-0.227644
7.030090,-0.227600
7.033998,-0.228401
7.037905,-0.232502
7.041813,-0.240436
7.045721,-0.250485
7.049629,-0.259687
7.053537,-0.265550
7.057444,-0.267415
7.061352,-0.266646
7.065260,-0.265587
7.069168,-0.266080
7.073075,-0.268518
7.076983,-0.271902
7.080891,-0.274647
7.084799,-0.275469
7.088707,-0.273843
7.092614,-0.269961
7.096522,-0.264416
7.100430,-0.257841
7.104338,-0.250651
7.108245,-0.242957
7.112153,-0.234741
7.116061,-0.226247
7.119969,-0.218381
7.123877,-0.212784
7.127784,-0.211341
7.131692,-0.215231
7.135600,-0.224048
7.139508,-0.235600
7.143415,-0.246680
7.147323,-0.254492
7.151231,-0.257874
7.155139,-0.257566
7.159047,-0.255420
7.162954,-0.253243
7.166862,-0.252197
7.170770,-0.253040
7.174678,-0.256627
7.178585,-0.263739
7.182493,-0.274035
7.186401,-0.285051
7.190309,-0.292703
7.194216,-0.293717
7.198124,-0.288489
7.202032,-0.281749
7.205940,-0.279641
7.209848,-0.284781
7.213755,-0.293298
7.217663,-0.297055
7.221571,-0.290289
7.225479,-0.275552
7.229386,-0.263267
7.233294,-0.263807
7.237202,-0.277820
7.241110,-0.293528
7.245018,-0.295139
7.248925,-0.276682
7.252833,-0.248593
7.256741,-0.227563
7.260649,-0.213418
7.264556,-0.170689
7.268464,-0.034923
7.272372,0.250575
7.276280,0.685003
7.280188,1.180088
7.284095,1.576592
7.288003,1.707544
7.291911,1.477864
7.295819,0.916191
7.299726,0.168383
7.303634,-0.564629
7.307542,-1.110389
7.311450,-1.385828
7.315358,-1.408383
7.319265,-1.261163
7.323173,-1.040139
7.327081,-0.814743
7.330989,-0.617275
7.334896,-0.455239
7.338804,-0.328962
7.342712,-0.240157
7.346620,-0.189266
7.350528,-0.169423
7.354435,-0.165723
7.358343,-0.161729
7.362251,-0.147943
7.366159,-0.125410
7.370066,-0.102061
7.373974,-0.085301
7.377882,-0.076692
7.381790,-0.072100
7.385698,-0.065962
7.389605,-0.055521
7.393513,-0.041836
7.397421,-0.027613
7.401329,-0.014444
7.405236,-0.001835
7.409144,0.011697
7.413052,0.027028
7.416960,0.043943
7.420868,0.061956
7.424775,0.081279
7.428683,0.102837
7.432591,0.127269
7.436499,0.153917
7.440406,0.180836
7.444314,0.205936
7.448222,0.228456
7.452130,0.249661
7.456038,0.272202
7.459945,0.298494
7.463853,0.329127
7.467761,0.362288
7.471669,0.394520
7.475576,0.422326
7.479484,0.443640
7.483392,0.458340
7.487300,0.467646
7.491208,0.472924
7.495115,0.474733
7.499023,0.472689
7.502931,0.466152
7.506839,0.455179
7.510746,0.441007
7.514654,0.425640
7.518562,0.410755
7.522470,0.396642
7.526377,0.381847
7.530285,0.363823
7.534193,0.340254
7.538101,0.310326
7.542009,0.275134
7.545916,0.236905
7.549824,0.197528
7.553732,0.157463
7.557640,0.115860
7.561547,0.071862
7.565455,0.026083
7.569363,-0.018937
7.573271,-0.059806
7.577179,-0.094173
7.581086,-0.122042
7.584994,-0.145476
7.588902,-0.166919
7.592810,-0.187407
7.596717,-0.205999
7.600625,-0.220719
7.604533,-0.230234
7.608441,-0.234981
7.612349,-0.236994
7.616256,-0.238614
7.620164,-0.241033
7.624072,-0.243677
7.627980,-0.244807
7.631887,-0.242821
7.635795,-0.237313
7.639703,-0.229231
7.643611,-0.220227
7.647519,-0.211817
7.651426,-0.204918
7.655334,-0.199884
7.659242,-0.196754
7.663150,-0.195385
7.667057,-0.195405
7.670965,-0.196134
7.674873,-0.196684
7.678781,-0.196291
7.682689,-0.194734
7.686596,-0.192567
7.690504,-0.190930
7.694412,-0.190973
7.698320,-0.193217
7.702227,-0.197290
7.706135,-0.202274
7.710043,-0.207450
7.713951,-0.212884
7.717859,-0.219305
7.721766,-0.227291
7.725674,-0.236380
7.729582,-0.244909
7.733490,-0.250865
7.737397,-0.253204
7.741305,-0.252684
7.745213,-0.251572
7.749121,-0.252351
7.753029,-0.256235
7.756936,-0.262448
7.760844,-0.268755
7.764752,-0.272893
7.768660,-0.273926
7.772567,-0.272586
7.776475,-0.270526
7.780383,-0.269159
7.784291,-0.268984
7.788199,-0.269679
7.792106,-0.270579
7.796014,-0.270966
7.799922,-0.270006
7.803830,-0.266598
7.807737,-0.259607
7.811645,-0.248589
7.815553,-0.234654
7.819461,-0.220780
7.823369,-0.211015
7.827276,-0.208661
7.831184,-0.214327
7.835092,-0.225186
7.839000,-0.236230
7.842907,-0.243019
7.846815,-0.244188
7.850723,-0.241954
7.854631,-0.240235
7.858538,-0.241735
7.862446,-0.246145
7.866354,-0.250774
7.870262,-0.253066
7.874170,-0.252974
7.878077,-0.253151
7.881985,-0.256670
7.885893,-0.264143
7.889801,-0.272816
7.893708,-0.278675
7.897616,-0.279859
7.901524,-0.278291
7.905432,-0.277799
7.909340,-0.280210
7.913247,-0.283127
7.917155,-0.281953
7.921063,-0.274816
7.924971,-0.265754
7.928878,-0.262250
7.932786,-0.268153
7.936694,-0.278151
7.940602,-0.280124
7.944510,-0.265423
7.948417,-0.238839
7.952325,-0.217085
7.956233,-0.211720
7.960141,-0.206134
7.964048,-0.146134
7.967956,0.040245
7.971864,0.396548
7.975772,0.890033
7.979680,1.395633
7.983587,1.731578
7.987495,1.736237
7.991403,1.347950
7.995311,0.643440
7.999218,-0.188418
8.003126,-0.924749
8.007034,-1.397727
8.010942,-1.550114
8.014850,-1.434838
8.018757,-1.168313
8.022665,-0.869308
8.026573,-0.615758
8.030481,-0.434417
8.034388,-0.316702
8.038296,-0.242316
8.042204,-0.194847
8.046112,-0.164876
8.050020,-0.146089
8.053927,-0.132215
8.057835,-0.118012
8.061743,-0.101972
8.065651,-0.086751
8.069558,-0.076186
8.073466,-0.071409
8.077374,-0.069462
8.081282,-0.065457
8.085190,-0.056207
8.089097,-0.042235
8.093005,-0.026732
8.096913,-0.012690
8.100821,-0.000698
8.104728,0.011031
8.108636,0.024814
8.112544,0.041584
8.116452,0.060388
8.120360,0.079464
8.124267,0.097836
8.128175,0.116119
8.132083,0.135989
8.135991,0.158829
8.139898,0.184687
8.143806,0.212290
8.147714,0.240001
8.151622,0.266904
8.155530,0.293246
8.159437,0.319983
8.163345,0.347804
8.167253,0.376301
8.171161,0.403855
8.175068,0.428293
8.178976,0.447882
8.182884,0.461979
8.186792,0.470990
8.190699,0.475803
8.194607,0.477194
8.198515,0.475602
8.202423,0.471277
8.206331,0.464538
8.210238,0.455802
8.214146,0.445344
8.218054,0.433015
8.221962,0.418240
8.225869,0.400358
8.229777,0.379043
8.233685,0.354406
8.237593,0.326641
8.241501,0.295534
8.245408,0.260339
8.249316,0.220285
8.253224,0.175466
8.257132,0.127461
8.261039,0.079149
8.264947,0.033656
8.268855,-0.007006
8.272763,-0.042728
8.276671,-0.074963
8.280578,-0.105401
8.284486,-0.134516
8.288394,-0.160998
8.292302,-0.182505
8.296209,-0.197245
8.300117,-0.205313
8.304025,-0.208876
8.307933,-0.211083
8.311841,-0.214392
8.315748,-0.219341
8.319656,-0.224397
8.323564,-0.226949
8.327472,-0.224871
8.331379,-0.217890
8.335287,-0.208023
8.339195,-0.198776
8.343103,-0.193408
8.347011,-0.193218
8.350918,-0.196880
8.354826,-0.201287
8.358734,-0.203363
8.362642,-0.201719
8.366549,-0.197164
8.370457,-0.191863
8.374365,-0.187824
8.378273,-0.185761
8.382181,-0.185068
8.386088,-0.184770
8.389996,-0.184607
8.393904,-0.185311
8.397812,-0.187855
8.401719,-0.192355
8.405627,-0.197652
8.409535,-0.202027
8.413443,-0.204523
8.417351,-0.205767
8.421258,-0.207566
8.425166,-0.211544
8.429074,-0.217889
8.432982,-0.225178
8.436889,-0.231434
8.440797,-0.235550
8.444705,-0.237935
8.448613,-0.239923
8.452521,-0.242480
8.456428,-0.245350
8.460336,-0.247309
8.464244,-0.247271
8.468152,-0.245338
8.472059,-0.242998
8.475967,-0.242358
8.479875,-0.244956
8.483783,-0.250866
8.487691,-0.258535
8.491598,-0.265323
8.495506,-0.268442
8.499414,-0.265914
8.503322,-0.257263
8.507229,-0.243741
8.511137,-0.228028
8.515045,-0.213467
8.518953,-0.203086
8.522860,-0.198736
8.526768,-0.200629
8.530676,-0.207352
8.534584,-0.216299
8.538492,-0.224464
8.542399,-0.229470
8.546307,-0.230478
8.550215,-0.228453
8.554123,-0.225510
8.558030,-0.223683
8.561938,-0.223943
8.565846,-0.226118
8.569754,-0.229617
8.573662,-0.234178
8.577569,-0.239857
8.581477,-0.246260
8.585385,-0.251920
8.589293,-0.254825
8.593200,-0.254107
8.597108,-0.251452
8.601016,-0.250523
8.604924,-0.254102
8.608832,-0.261006
8.612739,-0.265794
8.616647,-0.262575
8.620555,-0.250575
8.624463,-0.236646
8.628370,-0.231312
8.632278,-0.240116
8.636186,-0.257130
8.640094,-0.267425
8.644002,-0.258627
8.647909,-0.232815
8.651817,-0.206701
8.655725,-0.195102
8.659633,-0.186761
8.663540,-0.132143
8.667448,0.040060
8.671356,0.378622
8.675264,0.860594
8.679172,1.370589
8.683079,1.730644
8.686987,1.773944
8.690895,1.426666
8.694803,0.752684
8.698710,-0.066041
8.702618,-0.804939
8.706526,-1.288550
8.710434,-1.451755
8.714342,-1.343955
8.718249,-1.083138
8.722157,-0.791920
8.726065,-0.550556
8.729973,-0.384598
8.733880,-0.281577
8.737788,-0.217280
8.741696,-0.173835
8.745604,-0.143557
8.749512,-0.123728
8.753419,-0.111140
8.757327,-0.101261
8.761235,-0.090847
8.765143,-0.079922
8.769050,-0.070719
8.772958,-0.064680
8.776866,-0.060504
8.780774,-0.054962
8.784682,-0.045510
8.788589,-0.032208
8.792497,-0.017363
8.796405,-0.003425
8.800313,0.008901
8.804220,0.020852
8.808128,0.034268
8.812036,0.050126
8.815944,0.068193
8.819852,0.087836
8.823759,0.108928
8.827667,0.131876
8.831575,0.156775
8.835483,0.182630
8.839390,0.207545
8.843298,0.229877
8.847206,0.249510
8.851114,0.268237
8.855021,0.288902
8.858929,0.313814
8.862837,0.343396
8.866745,0.375812
8.870653,0.407692
8.874560,0.435544
8.878468,0.457119
8.882376,0.472060
8.886284,0.481564
8.890191,0.487304
8.894099,0.490350
8.898007,0.490757
8.901915,0.487969
8.905823,0.481625
8.909730,0.472124
8.913638,0.460547
8.917546,0.448025
8.921454,0.434979
8.925361,0.420758
8.929269,0.403919
8.933177,0.382949
8.937085,0.356947
8.940993,0.325847
8.944900,0.290145
8.948808,0.250505
8.952716,0.207640
8.956624,0.162548
8.960531,0.116819
8.964439,0.072621
8.968347,0.032191
8.972255,-0.002966
8.976163,-0.032693
8.980070,-0.058207
8.983978,-0.081380
8.987886,-0.103637
8.991794,-0.125095
8.995701,-0.144493
8.999609,-0.159970
9.003517,-0.170214
9.007425,-0.175234
9.011333,-0.176307
9.015240,-0.175221
9.019148,-0.173389
9.023056,-0.171415
9.026964,-0.169266
9.030871,-0.166776
9.034779,-0.164066
9.038687,-0.161596
9.042595,-0.159859
9.046503,-0.158971
9.050410,-0.158488
9.054318,-0.157629
9.058226,-0.155765
9.062134,-0.152817
9.066041,-0.149307
9.069949,-0.146038
9.073857,-0.143678
9.077765,-0.142519
9.081673,-0.142504
9.085580,-0.143391
9.089488,-0.144866
9.093396,-0.146541
9.097304,-0.147946
9.101211,-0.148667
9.105119,-0.148664
9.109027,-0.148506
9.112935,-0.149216
9.116843,-0.151667
9.120750,-0.155907
9.124658,-0.161023
9.128566,-0.165766
9.132474,-0.169516
9.136381,-0.172777
9.140289,-0.176719
9.144197,-0.182116
9.148105,-0.188606
9.152013,-0.194894
9.155920,-0.199721
9.159828,-0.202740
9.163736,-0.204553
9.167644,-0.205925
9.171551,-0.206937
9.175459,-0.206920
9.179367,-0.205309
9.183275,-0.202658
9.187182,-0.200719
9.191090,-0.201228
9.194998,-0.204179
9.198906,-0.207027
9.202814,-0.205713
9.206721,-0.197110
9.210629,-0.181351
9.214537,-0.162473
9.218445,-0.146771
9.222352,-0.139715
9.226260,-0.143146
9.230168,-0.154374
9.234076,-0.167648
9.237984,-0.177146
9.241891,-0.179780
9.245799,-0.176336
9.249707,-0.170462
9.253615,-0.166236
9.257522,-0.165822
9.261430,-0.168646
9.265338,-0.172550
9.269246,-0.176036
9.273154,-0.179824
9.277061,-0.186293
9.280969,-0.197018
9.284877,-0.210371
9.288785,-0.221547
9.292692,-0.225628
9.296600,-0.221543
9.300508,-0.213487
9.304416,-0.208004
9.308324,-0.208661
9.312231,-0.212763
9.316139,-0.213398
9.320047,-0.205717
9.323955,-0.192204
9.327862,-0.181739
9.331770,-0.182178
9.335678,-0.192343
9.339586,-0.201239
9.343494,-0.196920
9.347401,-0.178274
9.351309,-0.157721
9.355217,-0.147900
9.359125,-0.138948
9.363032,-0.085032
9.366940,0.082084
9.370848,0.411260
9.374756,0.883403
9.378664,1.389306
9.382571,1.756823
9.386479,1.821692
9.390387,1.507261
9.394295,0.868849
9.398202,0.076343
9.402110,-0.656703
9.406018,-1.159617
9.409926,-1.362730
9.413834,-1.302670
9.417741,-1.081642
9.421649,-0.810279
9.425557,-0.565557
9.429465,-0.379049
9.433372,-0.249879
9.437280,-0.165169
9.441188,-0.113191
9.445096,-0.085448
9.449004,-0.073391
9.452911,-0.067074
9.456819,-0.058062
9.460727,-0.043333
9.464635,-0.025834
9.468542,-0.010845
9.472450,-0.001212
9.476358,0.004733
9.480266,0.011385
9.484174,0.022297
9.488081,0.037925
9.491989,0.056083
9.495897,0.074098
9.499805,0.090607
9.503712,0.105861
9.507620,0.120914
9.511528,0.136807
9.515436,0.154317
9.519343,0.174023
9.523251,0.196192
9.527159,0.220462
9.531067,0.245808
9.534975,0.271103
9.538882,0.295968
9.542790,0.321117
9.546698,0.347782
9.550606,0.376599
9.554513,0.406879
9.558421,0.436898
9.562329,0.465013
9.566237,0.490752
9.570145,0.515006
9.574052,0.539107
9.577960,0.563405
9.581868,0.586435
9.585776,0.605393
9.589683,0.617695
9.593591,0.622546
9.597499,0.621390
9.601407,0.616900
9.605315,0.611211
9.609222,0.604619
9.613130,0.595636
9.617038,0.582311
9.620946,0.563854
9.624853,0.541366
9.628761,0.517088
9.632669,0.492648
9.636577,0.467529
9.640485,0.438962
9.644392,0.403557
9.648300,0.359735
9.652208,0.309310
9.656116,0.256961
9.660023,0.207762
9.663931,0.164369
9.667839,0.125832
9.671747,0.088938
9.675655,0.051129
9.679562,0.012889
9.683470,-0.022156
9.687378,-0.049506
9.691286,-0.066772
9.695193,-0.075303
9.699101,-0.079376
9.703009,-0.083604
9.706917,-0.090357
9.710825,-0.098800
9.714732,-0.105943
9.718640,-0.108800
9.722548,-0.106240
9.726456,-0.099494
9.730363,-0.091207
9.734271,-0.083795
9.738179,-0.078246
9.742087,-0.074071
9.745995,-0.070205
9.749902,-0.065981
9.753810,-0.061415
9.757718,-0.056781
9.761626,-0.052091
9.765533,-0.047069
9.769441,-0.041586
9.773349,-0.036031
9.777257,-0.031169
9.781165,-0.027596
9.785072,-0.025357
9.788980,-0.024124
9.792888,-0.023754
9.796796,-0.024641
9.800703,-0.027409
9.804611,-0.032139
9.808519,-0.037804
9.812427,-0.042587
9.816335,-0.044990
9.820242,-0.044939
9.824150,-0.043945
9.828058,-0.044091
9.831966,-0.046580
9.835873,-0.050949
9.839781,-0.055541
9.843689,-0.058809
9.847597,-0.060360
9.851504,-0.060915
9.855412,-0.061308
9.859320,-0.061495
9.863228,-0.060484
9.867136,-0.057271
9.871043,-0.051899
9.874951,-0.045608
9.878859,-0.039798
9.882767,-0.034664
9.886674,-0.028790
9.890582,-0.020261
9.894490,-0.008559
9.898398,0.004322
9.902306,0.014601
9.906213,0.018904
9.910121,0.016371
9.914029,0.009170
9.917937,0.001066
9.921844,-0.004878
9.925752,-0.007879
9.929660,-0.009278
9.933568,-0.010995
9.937476,-0.013805
9.941383,-0.016698
9.945291,-0.017707
9.949199,-0.015622
9.953107,-0.011458
9.957014,-0.008564
9.960922,-0.010981
9.964830,-0.020673
9.968738,-0.035358
9.972646,-0.048714
9.976553,-0.053528
9.980461,-0.046200
9.984369,-0.029650
9.988277,-0.012289
9.992184,-0.003248
9.996092,-0.006751
10.000000,-0.019342
