time,ecg
0.000000,-0.021438
0.003908,-0.233665
0.007816,-0.370802
0.011723,-0.402848
0.015631,-0.357710
0.019539,-0.295332
0.023447,-0.265660
0.027354,-0.281408
0.031262,-0.320851
0.035170,-0.351927
0.039078,-0.356293
0.042986,-0.337282
0.046893,-0.310943
0.050801,-0.291239
0.054709,-0.281362
0.058617,-0.275323
0.062524,-0.265411
0.066432,-0.248250
0.070340,-0.225523
0.074248,-0.200762
0.078156,-0.176214
0.082063,-0.152421
0.085971,-0.129897
0.089879,-0.110377
0.093787,-0.095927
0.097694,-0.086677
0.101602,-0.079527
0.105510,-0.069425
0.109418,-0.052506
0.113326,-0.028609
0.117233,-0.001137
0.121141,0.025672
0.125049,0.049881
0.128957,0.072936
0.132864,0.097874
0.136772,0.126162
0.140680,0.155764
0.144588,0.182052
0.148496,0.201008
0.152403,0.212351
0.156311,0.220267
0.160219,0.231139
0.164127,0.249839
0.168034,0.277080
0.171942,0.309442
0.175850,0.341694
0.179758,0.369537
0.183665,0.390917
0.187573,0.405495
0.191481,0.413285
0.195389,0.413823
0.199297,0.406294
0.203204,0.390001
0.207112,0.364414
0.211020,0.328765
0.214928,0.281890
0.218835,0.222968
0.222743,0.152985
0.226651,0.075928
0.230559,-0.001400
0.234467,-0.071343
0.238374,-0.128311
0.242282,-0.171010
0.246190,-0.202562
0.250098,-0.228360
0.254005,-0.252955
0.257913,-0.277875
0.261821,-0.301481
0.265729,-0.320641
0.269637,-0.332937
0.273544,-0.338093
0.277452,-0.337994
0.281360,-0.335538
0.285268,-0.333144
0.289175,-0.331783
0.293083,-0.331052
0.296991,-0.330167
0.300899,-0.329127
0.304807,-0.329144
0.308714,-0.331868
0.312622,-0.337914
0.316530,-0.345883
0.320438,-0.352836
0.324345,-0.356043
0.328253,-0.354753
0.332161,-0.350594
0.336069,-0.346240
0.339977,-0.343284
0.343884,-0.340910
0.347792,-0.336387
0.351700,-0.327141
0.355608,-0.312974
0.359515,-0.296785
0.363423,-0.283120
0.367331,-0.275399
0.371239,-0.273714
0.375147,-0.274764
0.379054,-0.274028
0.382962,-0.268720
0.386870,-0.259554
0.390778,-0.250300
0.394685,-0.245561
0.398593,-0.248226
0.402501,-0.258034
0.406409,-0.271832
0.410317,-0.285189
0.414224,-0.294392
0.418132,-0.297897
0.422040,-0.296643
0.425948,-0.293276
0.429855,-0.290759
0.433763,-0.291041
0.437671,-0.294377
0.441579,-0.299546
0.445487,-0.304758
0.449394,-0.308639
0.453302,-0.310696
0.457210,-0.311070
0.461118,-0.309964
0.465025,-0.307342
0.468933,-0.303184
0.472841,-0.297990
0.476749,-0.292982
0.480657,-0.289674
0.484564,-0.289003
0.488472,-0.290637
0.492380,-0.293030
0.496288,-0.294310
0.500195,-0.293459
0.504103,-0.290828
0.508011,-0.287542
0.511919,-0.284192
0.515826,-0.280004
0.519734,-0.273309
0.523642,-0.263084
0.527550,-0.250229
0.531458,-0.237306
0.535365,-0.226714
0.539273,-0.218686
0.543181,-0.210829
0.547089,-0.199758
0.550996,-0.183641
0.554904,-0.163693
0.558812,-0.143482
0.562720,-0.126672
0.566628,-0.115038
0.570535,-0.108363
0.574443,-0.106233
0.578351,-0.110084
0.582259,-0.123392
0.586166,-0.149241
0.590074,-0.186736
0.593982,-0.229123
0.597890,-0.265622
0.601798,-0.286395
0.605705,-0.287623
0.609613,-0.273355
0.613521,-0.252894
0.617429,-0.235448
0.621336,-0.225524
0.625244,-0.221896
0.629152,-0.220439
0.633060,-0.218408
0.636968,-0.216772
0.640875,-0.218741
0.644783,-0.225724
0.648691,-0.234376
0.652599,-0.238043
0.656506,-0.232689
0.660414,-0.223238
0.664322,-0.224298
0.668230,-0.251587
0.672138,-0.306510
0.676045,-0.362836
0.679953,-0.366693
0.683861,-0.255919
0.687769,0.006363
0.691676,0.400426
0.695584,0.840788
0.699492,1.200409
0.703400,1.361489
0.707308,1.269082
0.711215,0.958861
0.715123,0.542397
0.719031,0.156337
0.722939,-0.097785
0.726846,-0.191498
0.730754,-0.167299
0.734662,-0.102376
0.738570,-0.062547
0.742478,-0.072998
0.746385,-0.118493
0.750293,-0.166137
0.754201,-0.191679
0.758109,-0.192326
0.762016,-0.181538
0.765924,-0.174171
0.769832,-0.174931
0.773740,-0.177697
0.777648,-0.173656
0.781555,-0.160012
0.785463,-0.142183
0.789371,-0.128741
0.793279,-0.124213
0.797186,-0.125828
0.801094,-0.126344
0.805002,-0.120011
0.808910,-0.106627
0.812818,-0.090800
0.816725,-0.077618
0.820633,-0.068562
0.824541,-0.060756
0.828449,-0.049673
0.832356,-0.032744
0.836264,-0.011069
0.840172,0.011761
0.844080,0.032417
0.847987,0.049961
0.851895,0.065998
0.855803,0.083159
0.859711,0.103325
0.863619,0.126859
0.867526,0.153033
0.871434,0.180923
0.875342,0.209916
0.879250,0.239507
0.883157,0.268783
0.887065,0.296171
0.890973,0.319796
0.894881,0.338263
0.898789,0.351339
0.902696,0.360052
0.906604,0.366081
0.910512,0.370706
0.914420,0.373793
0.918327,0.373296
0.922235,0.365641
0.926143,0.346968
0.930051,0.314806
0.933959,0.269371
0.937866,0.213807
0.941774,0.153116
0.945682,0.092255
0.949590,0.034361
0.953497,-0.019876
0.957405,-0.071369
0.961313,-0.120838
0.965221,-0.167318
0.969129,-0.208039
0.973036,-0.239853
0.976944,-0.261260
0.980852,-0.273604
0.984760,-0.280602
0.988667,-0.286535
0.992575,-0.294251
0.996483,-0.304125
1.000391,-0.314423
1.004299,-0.322661
1.008206,-0.327110
1.012114,-0.327660
1.016022,-0.325735
1.019930,-0.323466
1.023837,-0.322650
1.027745,-0.324008
1.031653,-0.326996
1.035561,-0.330170
1.039469,-0.331911
1.043376,-0.331154
1.047284,-0.327777
1.051192,-0.322459
1.055100,-0.316173
1.059007,-0.309722
1.062915,-0.303630
1.066823,-0.298344
1.070731,-0.294404
1.074639,-0.292298
1.078546,-0.292048
1.082454,-0.292839
1.086362,-0.293082
1.090270,-0.291050
1.094177,-0.285857
1.098085,-0.278185
1.101993,-0.270139
1.105901,-0.264122
1.109809,-0.261375
1.113716,-0.261219
1.117624,-0.261645
1.121532,-0.260853
1.125440,-0.258595
1.129347,-0.256293
1.133255,-0.255847
1.137163,-0.258028
1.141071,-0.261684
1.144979,-0.264371
1.148886,-0.264040
1.152794,-0.260576
1.156702,-0.256058
1.160610,-0.253514
1.164517,-0.254981
1.168425,-0.260144
1.172333,-0.266429
1.176241,-0.270466
1.180148,-0.270016
1.184056,-0.265250
1.187964,-0.258640
1.191872,-0.253563
1.195780,-0.252445
1.199687,-0.255534
1.203595,-0.260995
1.207503,-0.266133
1.211411,-0.268925
1.215318,-0.268953
1.219226,-0.267311
1.223134,-0.265684
1.227042,-0.265173
1.230950,-0.265564
1.234857,-0.265477
1.238765,-0.263331
1.242673,-0.258572
1.246581,-0.252332
1.250488,-0.246999
1.254396,-0.244867
1.258304,-0.246719
1.262212,-0.251377
1.266120,-0.256565
1.270027,-0.260503
1.273935,-0.263027
1.277843,-0.265391
1.281751,-0.268860
1.285658,-0.273192
1.289566,-0.276264
1.293474,-0.275326
1.297382,-0.269085
1.301290,-0.259030
1.305197,-0.248785
1.309105,-0.241697
1.313013,-0.238305
1.316921,-0.235604
1.320828,-0.228846
1.324736,-0.214772
1.328644,-0.194145
1.332552,-0.171954
1.336460,-0.155166
1.340367,-0.149423
1.344275,-0.156512
1.348183,-0.173890
1.352091,-0.196301
1.355998,-0.218414
1.359906,-0.236943
1.363814,-0.251191
1.367722,-0.262030
1.371630,-0.270340
1.375537,-0.276127
1.379445,-0.278872
1.383353,-0.278587
1.387261,-0.276496
1.391168,-0.274609
1.395076,-0.274490
1.398984,-0.276253
1.402892,-0.278715
1.406800,-0.280590
1.410707,-0.281615
1.414615,-0.282370
1.418523,-0.282801
1.422431,-0.281116
1.426338,-0.275162
1.430246,-0.266447
1.434154,-0.263631
1.438062,-0.280490
1.441970,-0.325677
1.445877,-0.387991
1.449785,-0.427245
1.453693,-0.381532
1.457601,-0.193958
1.461508,0.151247
1.465416,0.603441
1.469324,1.050138
1.473232,1.356083
1.477140,1.421124
1.481047,1.227477
1.484955,0.849903
1.488863,0.421683
1.492771,0.073943
1.496678,-0.119317
1.500586,-0.162567
1.504494,-0.119123
1.508402,-0.066549
1.512309,-0.054913
1.516217,-0.089735
1.520125,-0.143612
1.524033,-0.183194
1.527941,-0.192001
1.531848,-0.176410
1.535756,-0.155438
1.539664,-0.145020
1.543572,-0.148505
1.547479,-0.158097
1.551387,-0.163404
1.555295,-0.159324
1.559203,-0.147999
1.563111,-0.135114
1.567018,-0.124801
1.570926,-0.117199
1.574834,-0.109686
1.578742,-0.099823
1.582649,-0.087378
1.586557,-0.074136
1.590465,-0.062183
1.594373,-0.052213
1.598281,-0.043057
1.602188,-0.032462
1.606096,-0.018386
1.610004,-0.000015
1.613912,0.021841
1.617819,0.045009
1.621727,0.066819
1.625635,0.085379
1.629543,0.100765
1.633451,0.115303
1.637358,0.132529
1.641266,0.155256
1.645174,0.183978
1.649082,0.216687
1.652989,0.250182
1.656897,0.281864
1.660805,0.310760
1.664713,0.337218
1.668621,0.361760
1.672528,0.384112
1.676436,0.403168
1.680344,0.417785
1.684252,0.427523
1.688159,0.432532
1.692067,0.432509
1.695975,0.425636
1.699883,0.408600
1.703791,0.378072
1.707698,0.332832
1.711606,0.275104
1.715514,0.210116
1.719422,0.144075
1.723329,0.081839
1.727237,0.025625
1.731145,-0.024734
1.735053,-0.070484
1.738961,-0.112597
1.742868,-0.151062
1.746776,-0.184961
1.750684,-0.213058
1.754592,-0.234458
1.758499,-0.249017
1.762407,-0.257395
1.766315,-0.260915
1.770223,-0.261402
1.774131,-0.261041
1.778038,-0.262113
1.781946,-0.266523
1.785854,-0.275261
1.789762,-0.288044
1.793669,-0.303347
1.797577,-0.318853
1.801485,-0.332133
1.805393,-0.341285
1.809301,-0.345315
1.813208,-0.344224
1.817116,-0.338945
1.821024,-0.331173
1.824932,-0.323006
1.828839,-0.316300
1.832747,-0.311911
1.836655,-0.309255
1.840563,-0.306558
1.844470,-0.301802
1.848378,-0.293843
1.852286,-0.283051
1.856194,-0.271070
1.860102,-0.259871
1.864009,-0.250686
1.867917,-0.243511
1.871825,-0.237438
1.875733,-0.231567
1.879640,-0.225790
1.883548,-0.220821
1.887456,-0.217417
1.891364,-0.215401
1.895272,-0.213379
1.899179,-0.209525
1.903087,-0.202984
1.906995,-0.194830
1.910903,-0.187697
1.914810,-0.184135
1.918718,-0.184765
1.922626,-0.187639
1.926534,-0.189478
1.930442,-0.188051
1.934349,-0.183927
1.938257,-0.180121
1.942165,-0.179601
1.946073,-0.182425
1.949980,-0.184884
1.953888,-0.181813
1.957796,-0.170798
1.961704,-0.155155
1.965612,-0.142932
1.969519,-0.141984
1.973427,-0.154316
1.977335,-0.173882
1.981243,-0.189840
1.985150,-0.193371
1.989058,-0.183474
1.992966,-0.167708
1.996874,-0.157296
2.000782,-0.159870
2.004689,-0.174710
2.008597,-0.193515
2.012505,-0.205936
2.016413,-0.205997
2.020320,-0.195213
2.024228,-0.180719
2.028136,-0.170128
2.032044,-0.166807
2.035952,-0.168521
2.039859,-0.169828
2.043767,-0.166123
2.047675,-0.156553
2.051583,-0.144239
2.055490,-0.134153
2.059398,-0.130262
2.063306,-0.133514
2.067214,-0.141451
2.071122,-0.149357
2.075029,-0.152327
2.078937,-0.147451
2.082845,-0.135290
2.086753,-0.119967
2.090660,-0.107631
2.094568,-0.103732
2.098476,-0.110257
2.102384,-0.124374
2.106292,-0.139425
2.110199,-0.147968
2.114107,-0.145358
2.118015,-0.131888
2.121923,-0.112311
2.125830,-0.093127
2.129738,-0.079352
2.133646,-0.072720
2.137554,-0.072181
2.141462,-0.075944
2.145369,-0.083322
2.149277,-0.094945
2.153185,-0.111320
2.157093,-0.131044
2.161000,-0.150283
2.164908,-0.164223
2.168816,-0.169717
2.172724,-0.167439
2.176631,-0.161993
2.180539,-0.159639
2.184447,-0.164805
2.188355,-0.177476
2.192263,-0.193164
2.196170,-0.205602
2.200078,-0.210386
2.203986,-0.207037
2.207894,-0.198084
2.211801,-0.186222
2.215709,-0.172513
2.219617,-0.158019
2.223525,-0.148043
2.227433,-0.154543
2.231340,-0.191553
2.235248,-0.262504
2.239156,-0.345522
2.243064,-0.388163
2.246971,-0.321256
2.250879,-0.091419
2.254787,0.301859
2.258695,0.786619
2.262603,1.233315
2.266510,1.503463
2.270418,1.510536
2.274326,1.261223
2.278234,0.853385
2.282141,0.430357
2.286049,0.115841
2.289957,-0.035895
2.293865,-0.050003
2.297773,-0.000784
2.301680,0.036759
2.305588,0.024314
2.309496,-0.031542
2.313404,-0.098140
2.317311,-0.144813
2.321219,-0.160999
2.325127,-0.155985
2.329035,-0.145840
2.332943,-0.140089
2.336850,-0.137499
2.340758,-0.131312
2.344666,-0.117220
2.348574,-0.097001
2.352481,-0.075927
2.356389,-0.057714
2.360297,-0.042153
2.364205,-0.027266
2.368113,-0.013235
2.372020,-0.003776
2.375928,-0.003166
2.379836,-0.011336
2.383744,-0.021533
2.387651,-0.023197
2.391559,-0.008473
2.395467,0.022269
2.399375,0.060045
2.403283,0.092422
2.407190,0.110743
2.411098,0.114661
2.415006,0.111358
2.418914,0.110593
2.422821,0.119248
2.426729,0.138763
2.430637,0.166285
2.434545,0.197779
2.438453,0.230425
2.442360,0.262946
2.446268,0.294480
2.450176,0.323749
2.454084,0.349531
2.457991,0.371908
2.461899,0.392797
2.465807,0.414883
2.469715,0.439546
2.473623,0.465338
2.477530,0.488146
2.481438,0.502889
2.485346,0.505538
2.489254,0.494234
2.493161,0.469114
2.497069,0.431482
2.500977,0.383247
2.504885,0.327068
2.508792,0.266718
2.512700,0.206729
2.516608,0.150966
2.520516,0.100938
2.524424,0.055338
2.528331,0.011618
2.532239,-0.031289
2.536147,-0.071140
2.540055,-0.103083
2.543962,-0.122722
2.547870,-0.129531
2.551778,-0.128165
2.555686,-0.126498
2.559594,-0.131390
2.563501,-0.144819
2.567409,-0.162902
2.571317,-0.178527
2.575225,-0.185968
2.579132,-0.184458
2.583040,-0.178389
2.586948,-0.174080
2.590856,-0.175434
2.594764,-0.181513
2.598671,-0.187644
2.602579,-0.189059
2.606487,-0.184367
2.610395,-0.176422
2.614302,-0.170149
2.618210,-0.169053
2.622118,-0.172930
2.626026,-0.178252
2.629934,-0.180752
2.633841,-0.178240
2.637749,-0.171707
2.641657,-0.164105
2.645565,-0.157925
2.649472,-0.153489
2.653380,-0.149234
2.657288,-0.143648
2.661196,-0.137231
2.665104,-0.132811
2.669011,-0.133760
2.672919,-0.141307
2.676827,-0.152972
2.680735,-0.163515
2.684642,-0.168076
2.688550,-0.165429
2.692458,-0.158960
2.696366,-0.154440
2.700274,-0.155958
2.704181,-0.162890
2.708089,-0.170185
2.711997,-0.171947
2.715905,-0.165846
2.719812,-0.155202
2.723720,-0.147098
2.727628,-0.147647
2.731536,-0.157553
2.735444,-0.171142
2.739351,-0.179744
2.743259,-0.177394
2.747167,-0.165007
2.751075,-0.150074
2.754982,-0.141900
2.758890,-0.145509
2.762798,-0.158339
2.766706,-0.171973
2.770614,-0.177701
2.774521,-0.172106
2.778429,-0.158993
2.782337,-0.146536
2.786245,-0.141807
2.790152,-0.146451
2.794060,-0.156202
2.797968,-0.164156
2.801876,-0.165210
2.805784,-0.158628
2.809691,-0.147371
2.813599,-0.135289
2.817507,-0.124643
2.821415,-0.115781
2.825322,-0.108758
2.829230,-0.104991
2.833138,-0.107005
2.837046,-0.116115
2.840953,-0.129982
2.844861,-0.142548
2.848769,-0.147149
2.852677,-0.140906
2.856585,-0.127080
2.860492,-0.113331
2.864400,-0.106893
2.868308,-0.110035
2.872216,-0.118975
2.876123,-0.126893
2.880031,-0.128686
2.883939,-0.124041
2.887847,-0.116769
2.891755,-0.111190
2.895662,-0.108483
2.899570,-0.105787
2.903478,-0.098575
2.907386,-0.084351
2.911293,-0.064759
2.915201,-0.044596
2.919109,-0.028659
2.923017,-0.018935
2.926925,-0.014242
2.930832,-0.012390
2.934740,-0.012965
2.938648,-0.018348
2.942556,-0.031967
2.946463,-0.054971
2.950371,-0.083920
2.954279,-0.111582
2.958187,-0.130696
2.962095,-0.138304
2.966002,-0.137532
2.969910,-0.135358
2.973818,-0.137626
2.977726,-0.144678
2.981633,-0.150856
2.985541,-0.148684
2.989449,-0.135173
2.993357,-0.115660
2.997265,-0.101668
3.001172,-0.103243
3.005080,-0.120629
3.008988,-0.141731
3.012896,-0.148810
3.016803,-0.131580
3.020711,-0.098256
3.024619,-0.075331
3.028527,-0.092588
3.032435,-0.159533
3.036342,-0.247215
3.040250,-0.289547
3.044158,-0.209044
3.048066,0.042482
3.051973,0.448829
3.055881,0.921027
3.059789,1.324829
3.063697,1.534320
3.067605,1.486479
3.071512,1.209031
3.075420,0.806724
3.079328,0.412948
3.083236,0.131832
3.087143,0.000257
3.091051,-0.013111
3.094959,0.023992
3.098867,0.050324
3.102775,0.040069
3.106682,0.004529
3.110590,-0.028487
3.114498,-0.039909
3.118406,-0.031933
3.122313,-0.022015
3.126221,-0.026193
3.130129,-0.045849
3.134037,-0.067477
3.137945,-0.074211
3.141852,-0.059227
3.145760,-0.030726
3.149668,-0.005432
3.153576,0.003700
3.157483,-0.003860
3.161391,-0.017069
3.165299,-0.022040
3.169207,-0.011624
3.173114,0.010967
3.177022,0.036134
3.180930,0.055472
3.184838,0.066995
3.188746,0.074669
3.192653,0.083749
3.196561,0.096291
3.200469,0.110438
3.204377,0.123449
3.208284,0.135329
3.212192,0.149663
3.216100,0.170836
3.220008,0.199973
3.223916,0.233011
3.227823,0.262674
3.231731,0.283143
3.235639,0.294228
3.239547,0.302126
3.243454,0.316105
3.247362,0.343039
3.251270,0.383060
3.255178,0.428905
3.259086,0.469392
3.262993,0.495104
3.266901,0.503097
3.270809,0.497991
3.274717,0.488817
3.278624,0.483415
3.282532,0.483615
3.286440,0.484018
3.290348,0.475147
3.294256,0.449115
3.298163,0.404411
3.302071,0.346813
3.305979,0.285883
3.309887,0.229376
3.313794,0.179293
3.317702,0.132217
3.321610,0.083548
3.325518,0.032477
3.329426,-0.016046
3.333333,-0.053989
3.337241,-0.075837
3.341149,-0.083161
3.345057,-0.084687
3.348964,-0.091382
3.352872,-0.109552
3.356780,-0.136471
3.360688,-0.161624
3.364596,-0.173030
3.368503,-0.164771
3.372411,-0.140960
3.376319,-0.113591
3.380227,-0.095592
3.384134,-0.093444
3.388042,-0.103914
3.391950,-0.116755
3.395858,-0.121419
3.399766,-0.113424
3.403673,-0.096456
3.407581,-0.079195
3.411489,-0.069309
3.415397,-0.068746
3.419304,-0.073336
3.423212,-0.076599
3.427120,-0.074748
3.431028,-0.069274
3.434936,-0.065483
3.438843,-0.068360
3.442751,-0.078931
3.446659,-0.093694
3.450567,-0.107205
3.454474,-0.115559
3.458382,-0.118066
3.462290,-0.116207
3.466198,-0.111333
3.470106,-0.103469
3.474013,-0.092326
3.477921,-0.079363
3.481829,-0.068580
3.485737,-0.064770
3.489644,-0.070258
3.493552,-0.082732
3.497460,-0.096160
3.501368,-0.104396
3.505275,-0.104930
3.509183,-0.100118
3.513091,-0.095204
3.516999,-0.094834
3.520907,-0.100625
3.524814,-0.111125
3.528722,-0.123476
3.532630,-0.134967
3.536538,-0.143336
3.540445,-0.146224
3.544353,-0.141250
3.548261,-0.127549
3.552169,-0.107944
3.556077,-0.089642
3.559984,-0.081787
3.563892,-0.090491
3.567800,-0.114321
3.571708,-0.143679
3.575615,-0.165247
3.579523,-0.169160
3.583431,-0.154473
3.587339,-0.129401
3.591247,-0.106199
3.595154,-0.093962
3.599062,-0.093840
3.602970,-0.099509
3.606878,-0.102320
3.610785,-0.097576
3.614693,-0.087705
3.618601,-0.080162
3.622509,-0.081506
3.626417,-0.091765
3.630324,-0.103252
3.634232,-0.105023
3.638140,-0.090221
3.642048,-0.061359
3.645955,-0.029737
3.649863,-0.009043
3.653771,-0.007076
3.657679,-0.020830
3.661587,-0.038083
3.665494,-0.044489
3.669402,-0.031746
3.673310,-0.001885
3.677218,0.034544
3.681125,0.064693
3.685033,0.079791
3.688941,0.077936
3.692849,0.062517
3.696757,0.038521
3.700664,0.009917
3.704572,-0.020341
3.708480,-0.048769
3.712388,-0.070684
3.716295,-0.081844
3.720203,-0.081421
3.724111,-0.073676
3.728019,-0.066272
3.731927,-0.065713
3.735834,-0.072956
3.739742,-0.082603
3.743650,-0.086715
3.747558,-0.080839
3.751465,-0.067851
3.755373,-0.056432
3.759281,-0.054804
3.763189,-0.064181
3.767097,-0.077374
3.771004,-0.084799
3.774912,-0.084288
3.778820,-0.086616
3.782728,-0.109594
3.786635,-0.160926
3.790543,-0.219668
3.794451,-0.231119
3.798359,-0.125038
3.802267,0.146680
3.806174,0.571497
3.810082,1.061209
3.813990,1.475444
3.817898,1.677891
3.821805,1.598877
3.825713,1.270757
3.829621,0.815043
3.833529,0.386361
3.837436,0.102691
3.841344,-0.001111
3.845252,0.026194
3.849160,0.093349
3.853068,0.122049
3.856975,0.084458
3.860883,0.005017
3.864791,-0.067882
3.868699,-0.098016
3.872606,-0.082092
3.876514,-0.045466
3.880422,-0.020424
3.884330,-0.024147
3.888238,-0.050505
3.892145,-0.078352
3.896053,-0.087878
3.899961,-0.073055
3.903869,-0.043057
3.907776,-0.013986
3.911684,0.001938
3.915592,0.002529
3.919500,-0.005523
3.923408,-0.012607
3.927315,-0.012125
3.931223,-0.002909
3.935131,0.012208
3.939039,0.029519
3.942946,0.046847
3.946854,0.064126
3.950762,0.082519
3.954670,0.103038
3.958578,0.125523
3.962485,0.148449
3.966393,0.169706
3.970301,0.188055
3.974209,0.204459
3.978116,0.222261
3.982024,0.245679
3.985932,0.277241
3.989840,0.315787
3.993748,0.356581
3.997655,0.393812
4.001563,0.424027
4.005471,0.448146
4.009379,0.470479
4.013286,0.495216
4.017194,0.522838
4.021102,0.549182
4.025010,0.568059
4.028918,0.575574
4.032825,0.572782
4.036733,0.564459
4.040641,0.554747
4.044549,0.543041
4.048456,0.523455
4.052364,0.488662
4.056272,0.435499
4.060180,0.368176
4.064088,0.296512
4.067995,0.230258
4.071903,0.173579
4.075811,0.123822
4.079719,0.075448
4.083626,0.026010
4.087534,-0.020600
4.091442,-0.056305
4.095350,-0.074791
4.099258,-0.076628
4.103165,-0.069583
4.107073,-0.063881
4.110981,-0.065993
4.114889,-0.075433
4.118796,-0.086536
4.122704,-0.093373
4.126612,-0.093935
4.130520,-0.090785
4.134428,-0.088384
4.138335,-0.089707
4.142243,-0.094684
4.146151,-0.101061
4.150059,-0.106270
4.153966,-0.108571
4.157874,-0.106940
4.161782,-0.100591
4.165690,-0.089310
4.169597,-0.074663
4.173505,-0.060864
4.177413,-0.053846
4.181321,-0.058367
4.185229,-0.074796
4.189136,-0.097935
4.193044,-0.119132
4.196952,-0.130635
4.200860,-0.129476
4.204767,-0.118454
4.208675,-0.103834
4.212583,-0.091601
4.216491,-0.084832
4.220399,-0.083560
4.224306,-0.086478
4.228214,-0.092565
4.232122,-0.101137
4.236030,-0.110492
4.239937,-0.116815
4.243845,-0.114991
4.247753,-0.101498
4.251661,-0.077638
4.255569,-0.050663
4.259476,-0.031344
4.263384,-0.028752
4.267292,-0.045090
4.271200,-0.073826
4.275107,-0.102635
4.279015,-0.119638
4.282923,-0.119257
4.286831,-0.104233
4.290739,-0.083005
4.294646,-0.064649
4.298554,-0.054797
4.302462,-0.054595
4.306370,-0.062225
4.310277,-0.074914
4.314185,-0.089750
4.318093,-0.103339
4.322001,-0.111615
4.325909,-0.111001
4.329816,-0.100652
4.333724,-0.084079
4.337632,-0.068386
4.341540,-0.060885
4.345447,-0.064959
4.349355,-0.077963
4.353263,-0.092743
4.357171,-0.101885
4.361079,-0.101926
4.364986,-0.094841
4.368894,-0.086110
4.372802,-0.080933
4.376710,-0.081146
4.380617,-0.084634
4.384525,-0.087189
4.388433,-0.085324
4.392341,-0.078250
4.396249,-0.068017
4.400156,-0.057994
4.404064,-0.050729
4.407972,-0.046373
4.411880,-0.042502
4.415787,-0.035468
4.419695,-0.022663
4.423603,-0.004553
4.427511,0.014708
4.431419,0.028619
4.435326,0.031134
4.439234,0.019497
4.443142,-0.004415
4.447050,-0.034922
4.450957,-0.064964
4.454865,-0.088665
4.458773,-0.102754
4.462681,-0.106591
4.466589,-0.101530
4.470496,-0.090496
4.474404,-0.077823
4.478312,-0.068656
4.482220,-0.067263
4.486127,-0.074722
4.490035,-0.087450
4.493943,-0.098027
4.497851,-0.098505
4.501758,-0.084618
4.505666,-0.058579
4.509574,-0.028965
4.513482,-0.008081
4.517390,-0.008341
4.521297,-0.038576
4.525205,-0.099655
4.529113,-0.178757
4.533021,-0.244235
4.536928,-0.246627
4.540836,-0.131733
4.544744,0.134117
4.548652,0.536309
4.552560,0.998608
4.556467,1.398388
4.560375,1.610587
4.564283,1.562530
4.568191,1.271256
4.572098,0.840763
4.576006,0.417160
4.579914,0.123653
4.583822,0.009484
4.587730,0.039171
4.591637,0.124893
4.595545,0.180360
4.599453,0.164225
4.603361,0.090710
4.607268,0.007098
4.611176,-0.042736
4.615084,-0.044495
4.618992,-0.015651
4.622900,0.012801
4.626807,0.019367
4.630715,0.004123
4.634623,-0.015893
4.638531,-0.021742
4.642438,-0.006101
4.646346,0.023572
4.650254,0.052501
4.654162,0.069755
4.658070,0.074841
4.661977,0.075974
4.665885,0.082556
4.669793,0.097936
4.673701,0.117479
4.677608,0.132640
4.681516,0.137628
4.685424,0.133826
4.689332,0.129100
4.693240,0.132759
4.697147,0.149826
4.701055,0.178410
4.704963,0.211605
4.708871,0.242215
4.712778,0.266979
4.716686,0.287677
4.720594,0.308874
4.724502,0.334254
4.728410,0.364119
4.732317,0.395455
4.736225,0.424022
4.740133,0.446747
4.744041,0.462929
4.747948,0.473917
4.751856,0.481984
4.755764,0.489260
4.759672,0.497146
4.763580,0.506040
4.767487,0.515157
4.771395,0.522488
4.775303,0.525225
4.779211,0.520773
4.783118,0.507942
4.787026,0.487507
4.790934,0.461527
4.794842,0.431693
4.798750,0.397812
4.802657,0.357711
4.806565,0.308883
4.810473,0.250928
4.814381,0.187124
4.818288,0.123939
4.822196,0.068660
4.826104,0.026418
4.830012,-0.001794
4.833919,-0.019223
4.837827,-0.031643
4.841735,-0.044712
4.845643,-0.061510
4.849551,-0.081230
4.853458,-0.099620
4.857366,-0.111147
4.861274,-0.112114
4.865182,-0.103224
4.869089,-0.089965
4.872997,-0.080055
4.876905,-0.078951
4.880813,-0.086058
4.884721,-0.094381
4.888628,-0.094489
4.892536,-0.080713
4.896444,-0.055644
4.900352,-0.029656
4.904259,-0.015312
4.908167,-0.019911
4.912075,-0.040921
4.915983,-0.067279
4.919891,-0.085742
4.923798,-0.088179
4.927706,-0.075282
4.931614,-0.054864
4.935522,-0.036566
4.939429,-0.026700
4.943337,-0.026174
4.947245,-0.031758
4.951153,-0.038846
4.955061,-0.043545
4.958968,-0.043380
4.962876,-0.037342
4.966784,-0.026154
4.970692,-0.012614
4.974599,-0.001055
4.978507,0.004540
4.982415,0.002810
4.986323,-0.004141
4.990231,-0.012336
4.994138,-0.018983
4.998046,-0.024566
5.001954,-0.032051
5.005862,-0.043583
5.009769,-0.057346
5.013677,-0.067554
5.017585,-0.068174
5.021493,-0.057765
5.025401,-0.041392
5.029308,-0.027593
5.033216,-0.022332
5.037124,-0.024666
5.041032,-0.027773
5.044939,-0.024807
5.048847,-0.014950
5.052755,-0.004539
5.056663,-0.002020
5.060571,-0.010539
5.064478,-0.024201
5.068386,-0.031392
5.072294,-0.023065
5.076202,0.000085
5.080109,0.027047
5.084017,0.043157
5.087925,0.039384
5.091833,0.017811
5.095741,-0.010092
5.099648,-0.030682
5.103556,-0.035706
5.107464,-0.025537
5.111372,-0.006983
5.115279,0.011810
5.119187,0.025601
5.123095,0.033225
5.127003,0.036213
5.130911,0.036943
5.134818,0.037891
5.138726,0.041792
5.142634,0.051423
5.146542,0.068241
5.150449,0.090711
5.154357,0.114029
5.158265,0.132185
5.162173,0.141304
5.166081,0.141832
5.169988,0.137731
5.173896,0.133148
5.177804,0.129102
5.181712,0.122814
5.185619,0.110221
5.189527,0.089740
5.193435,0.064336
5.197343,0.040274
5.201250,0.023412
5.205158,0.015709
5.209066,0.014476
5.212974,0.014841
5.216882,0.013582
5.220789,0.011438
5.224697,0.012063
5.228605,0.018291
5.232513,0.028642
5.236420,0.037235
5.240328,0.037924
5.244236,0.029830
5.248144,0.019415
5.252052,0.015935
5.255959,0.022197
5.259867,0.027684
5.263775,0.011856
5.267683,-0.040341
5.271590,-0.118268
5.275498,-0.175067
5.279406,-0.139155
5.283314,0.051872
5.287222,0.410113
5.291129,0.873148
5.295037,1.315635
5.298945,1.596977
5.302853,1.623636
5.306760,1.393488
5.310668,0.997293
5.314576,0.575486
5.318484,0.253582
5.322392,0.090874
5.326299,0.067853
5.330207,0.114045
5.334115,0.155228
5.338023,0.151063
5.341930,0.104640
5.345838,0.045337
5.349746,0.001971
5.353654,-0.014909
5.357562,-0.013249
5.361469,-0.007432
5.365377,-0.005968
5.369285,-0.007714
5.373193,-0.006713
5.377100,0.000824
5.381008,0.013708
5.384916,0.028266
5.388824,0.042360
5.392732,0.056573
5.396639,0.071762
5.400547,0.086006
5.404455,0.094578
5.408363,0.093620
5.412270,0.084448
5.416178,0.074425
5.420086,0.072946
5.423994,0.085231
5.427902,0.108628
5.431809,0.134359
5.435717,0.153471
5.439625,0.162615
5.443533,0.165617
5.447440,0.170180
5.451348,0.182482
5.455256,0.203586
5.459164,0.229750
5.463072,0.255819
5.466979,0.278984
5.470887,0.300321
5.474795,0.323387
5.478703,0.351128
5.482610,0.383349
5.486518,0.416360
5.490426,0.444800
5.494334,0.464342
5.498242,0.473641
5.502149,0.474654
5.506057,0.471413
5.509965,0.467986
5.513873,0.466528
5.517780,0.466181
5.521688,0.463277
5.525596,0.452812
5.529504,0.430557
5.533411,0.394794
5.537319,0.346934
5.541227,0.290863
5.545135,0.231515
5.549043,0.173374
5.552950,0.119437
5.556858,0.070911
5.560766,0.027661
5.564674,-0.010874
5.568581,-0.044816
5.572489,-0.073583
5.576397,-0.096382
5.580305,-0.113099
5.584213,-0.124845
5.588120,-0.133634
5.592028,-0.141248
5.595936,-0.147999
5.599844,-0.152310
5.603751,-0.151612
5.607659,-0.144198
5.611567,-0.130827
5.615475,-0.114872
5.619383,-0.100728
5.623290,-0.091493
5.627198,-0.087556
5.631106,-0.087063
5.635014,-0.087808
5.638921,-0.088971
5.642829,-0.091331
5.646737,-0.095869
5.650645,-0.102043
5.654553,-0.107340
5.658460,-0.108685
5.662368,-0.104760
5.666276,-0.097404
5.670184,-0.090834
5.674091,-0.089018
5.677999,-0.093025
5.681907,-0.100266
5.685815,-0.106192
5.689723,-0.107217
5.693630,-0.102789
5.697538,-0.095274
5.701446,-0.088019
5.705354,-0.083207
5.709261,-0.081072
5.713169,-0.080756
5.717077,-0.081757
5.720985,-0.084532
5.724893,-0.089712
5.728800,-0.096714
5.732708,-0.103151
5.736616,-0.105867
5.740524,-0.103072
5.744431,-0.096034
5.748339,-0.088957
5.752247,-0.086873
5.756155,-0.092786
5.760063,-0.105920
5.763970,-0.122187
5.767878,-0.136496
5.771786,-0.145347
5.775694,-0.148125
5.779601,-0.146620
5.783509,-0.143558
5.787417,-0.141277
5.791325,-0.141157
5.795233,-0.143637
5.799140,-0.148287
5.803048,-0.153742
5.806956,-0.157753
5.810864,-0.157814
5.814771,-0.152400
5.818679,-0.142205
5.822587,-0.130423
5.826495,-0.121494
5.830403,-0.118741
5.834310,-0.122246
5.838218,-0.128476
5.842126,-0.132232
5.846034,-0.129935
5.849941,-0.122143
5.853849,-0.113464
5.857757,-0.109668
5.861665,-0.113810
5.865572,-0.123925
5.869480,-0.133914
5.873388,-0.137072
5.877296,-0.129956
5.881204,-0.114140
5.885111,-0.094902
5.889019,-0.077964
5.892927,-0.066583
5.896835,-0.060823
5.900742,-0.059158
5.904650,-0.060860
5.908558,-0.067193
5.912466,-0.080389
5.916374,-0.101169
5.920281,-0.126723
5.924189,-0.150906
5.928097,-0.166888
5.932005,-0.170761
5.935912,-0.163772
5.939820,-0.151597
5.943728,-0.140947
5.947636,-0.135658
5.951544,-0.134878
5.955451,-0.134664
5.959359,-0.131936
5.963267,-0.127886
5.967175,-0.127947
5.971082,-0.137705
5.974990,-0.157321
5.978898,-0.179057
5.982806,-0.191280
5.986714,-0.187805
5.990621,-0.176338
5.994529,-0.178006
5.998437,-0.214280
6.002345,-0.286374
6.006252,-0.360040
6.010160,-0.369254
6.014068,-0.243282
6.017976,0.053024
6.021884,0.487240
6.025791,0.956954
6.029699,1.324156
6.033607,1.472930
6.037515,1.361833
6.041422,1.042923
6.045330,0.636605
6.049238,0.275597
6.053146,0.047933
6.057054,-0.031970
6.060961,-0.012658
6.064869,0.033337
6.068777,0.051464
6.072685,0.026976
6.076592,-0.020996
6.080500,-0.063093
6.084408,-0.082434
6.088316,-0.082312
6.092224,-0.077612
6.096131,-0.079900
6.100039,-0.088507
6.103947,-0.093183
6.107855,-0.084317
6.111762,-0.061554
6.115670,-0.034134
6.119578,-0.013517
6.123486,-0.004778
6.127394,-0.003557
6.131301,-0.000428
6.135209,0.011334
6.139117,0.030761
6.143025,0.050533
6.146932,0.063086
6.150840,0.066449
6.154748,0.065380
6.158656,0.067324
6.162564,0.076779
6.166471,0.092577
6.170379,0.109995
6.174287,0.125597
6.178195,0.140636
6.182102,0.160145
6.186010,0.188404
6.189918,0.224500
6.193826,0.261635
6.197733,0.291005
6.201641,0.307537
6.205549,0.313439
6.209457,0.317116
6.213365,0.328296
6.217272,0.352579
6.221180,0.388671
6.225088,0.429496
6.228996,0.465988
6.232903,0.491125
6.236811,0.502233
6.240719,0.500976
6.244627,0.491645
6.248535,0.478860
6.252442,0.465551
6.256350,0.451695
6.260258,0.434076
6.264166,0.407336
6.268073,0.366419
6.271981,0.309733
6.275889,0.241438
6.279797,0.171045
6.283705,0.109754
6.287612,0.065107
6.291520,0.037152
6.295428,0.018767
6.299336,0.000267
6.303243,-0.024597
6.307151,-0.055197
6.311059,-0.085425
6.314967,-0.108722
6.318875,-0.122904
6.322782,-0.131182
6.326690,-0.138827
6.330598,-0.148400
6.334506,-0.157586
6.338413,-0.161421
6.342321,-0.156943
6.346229,-0.146253
6.350137,-0.135303
6.354045,-0.129424
6.357952,-0.129322
6.361860,-0.130818
6.365768,-0.128376
6.369676,-0.119412
6.373583,-0.105887
6.377491,-0.092187
6.381399,-0.081337
6.385307,-0.072878
6.389215,-0.064183
6.393122,-0.053950
6.397030,-0.044636
6.400938,-0.041321
6.404846,-0.047550
6.408753,-0.061492
6.412661,-0.075911
6.416569,-0.082544
6.420477,-0.077845
6.424385,-0.065700
6.428292,-0.054893
6.432200,-0.053033
6.436108,-0.061379
6.440016,-0.074236
6.443923,-0.083198
6.447831,-0.082963
6.451739,-0.074594
6.455647,-0.064187
6.459555,-0.058349
6.463462,-0.059909
6.467370,-0.066793
6.471278,-0.074438
6.475186,-0.079581
6.479093,-0.082529
6.483001,-0.086388
6.486909,-0.094198
6.490817,-0.106327
6.494725,-0.120068
6.498632,-0.131515
6.502540,-0.138107
6.506448,-0.139891
6.510356,-0.138798
6.514263,-0.136882
6.518171,-0.135152
6.522079,-0.133740
6.525987,-0.132794
6.529894,-0.132799
6.533802,-0.133879
6.537710,-0.134805
6.541618,-0.133071
6.545526,-0.126528
6.549433,-0.115667
6.553341,-0.104630
6.557249,-0.099611
6.561157,-0.105154
6.565064,-0.120685
6.568972,-0.139889
6.572880,-0.153821
6.576788,-0.156024
6.580696,-0.146357
6.584603,-0.130945
6.588511,-0.118189
6.592419,-0.113402
6.596327,-0.115567
6.600234,-0.118279
6.604142,-0.114136
6.608050,-0.099584
6.611958,-0.077137
6.615866,-0.053869
6.619773,-0.037541
6.623681,-0.032995
6.627589,-0.040757
6.631497,-0.058039
6.635404,-0.080852
6.639312,-0.105668
6.643220,-0.129917
6.647128,-0.151694
6.651036,-0.169507
6.654943,-0.182508
6.658851,-0.190965
6.662759,-0.196317
6.666667,-0.200461
6.670574,-0.204493
6.674482,-0.207744
6.678390,-0.207974
6.682298,-0.202915
6.686206,-0.192442
6.690113,-0.179903
6.694021,-0.171337
6.697929,-0.172407
6.701837,-0.184464
6.705744,-0.202326
6.709652,-0.216021
6.713560,-0.216652
6.717468,-0.203576
6.721376,-0.187946
6.725283,-0.188336
6.729191,-0.218179
6.733099,-0.270681
6.737007,-0.310959
6.740914,-0.283906
6.744822,-0.138501
6.748730,0.141293
6.752638,0.515882
6.756546,0.894173
6.760453,1.165116
6.764361,1.243742
6.768269,1.108954
6.772177,0.813018
6.776084,0.457316
6.779992,0.147178
6.783900,-0.050541
6.787808,-0.126412
6.791716,-0.117748
6.795623,-0.078808
6.799531,-0.051043
6.803439,-0.048822
6.807347,-0.064040
6.811254,-0.081382
6.815162,-0.091843
6.819070,-0.096595
6.822978,-0.101737
6.826886,-0.110557
6.830793,-0.120036
6.834701,-0.123643
6.838609,-0.117176
6.842517,-0.102498
6.846424,-0.086249
6.850332,-0.074871
6.854240,-0.069970
6.858148,-0.067535
6.862055,-0.061362
6.865963,-0.047943
6.869871,-0.029208
6.873779,-0.011280
6.877687,-0.000312
6.881594,0.001581
6.885502,-0.002439
6.889410,-0.006145
6.893318,-0.004127
6.897225,0.005362
6.901133,0.020281
6.905041,0.037040
6.908949,0.053259
6.912857,0.069155
6.916764,0.086901
6.920672,0.108726
6.924580,0.135251
6.928488,0.165082
6.932395,0.195651
6.936303,0.224447
6.940211,0.249787
6.944119,0.270834
6.948027,0.287241
6.951934,0.298965
6.955842,0.306542
6.959750,0.311548
6.963658,0.316588
6.967565,0.324322
6.971473,0.335767
6.975381,0.348926
6.979289,0.358873
6.983197,0.359640
6.987104,0.346989
6.991012,0.320478
6.994920,0.283508
6.998828,0.241286
7.002735,0.197919
7.006643,0.154473
7.010551,0.109230
7.014459,0.059965
7.018367,0.006624
7.022274,-0.047489
7.026182,-0.096932
7.030090,-0.137004
7.033998,-0.166338
7.037905,-0.187539
7.041813,-0.205549
7.045721,-0.224907
7.049629,-0.247596
7.053537,-0.272542
7.057444,-0.296672
7.061352,-0.316600
7.065260,-0.329946
7.069168,-0.335871
7.073075,-0.335032
7.076983,-0.329341
7.080891,-0.321615
7.084799,-0.314914
7.088707,-0.311445
7.092614,-0.311505
7.096522,-0.313258
7.100430,-0.313744
7.104338,-0.310573
7.108245,-0.303135
7.112153,-0.292530
7.116061,-0.280508
7.119969,-0.268463
7.123877,-0.257379
7.127784,-0.248499
7.131692,-0.243662
7.135600,-0.244372
7.139508,-0.250000
7.143415,-0.256698
7.147323,-0.258520
7.151231,-0.250695
7.155139,-0.233053
7.159047,-0.211015
7.162954,-0.192920
7.166862,-0.185085
7.170770,-0.187811
7.174678,-0.195228
7.178585,-0.199253
7.182493,-0.195036
7.186401,-0.184113
7.190309,-0.173114
7.194216,-0.169031
7.198124,-0.174460
7.202032,-0.186072
7.205940,-0.197199
7.209848,-0.202491
7.213755,-0.201304
7.217663,-0.197593
7.221571,-0.196683
7.225479,-0.201385
7.229386,-0.210146
7.233294,-0.218310
7.237202,-0.221441
7.241110,-0.218412
7.245018,-0.212278
7.248925,-0.208405
7.252833,-0.211072
7.256741,-0.220748
7.260649,-0.233838
7.264556,-0.245107
7.268464,-0.251149
7.272372,-0.252521
7.276280,-0.253050
7.280188,-0.256795
7.284095,-0.264813
7.288003,-0.274024
7.291911,-0.279038
7.295819,-0.275735
7.299726,-0.264176
7.303634,-0.248854
7.307542,-0.236058
7.311450,-0.230023
7.315358,-0.230361
7.319265,-0.232424
7.323173,-0.230280
7.327081,-0.220219
7.330989,-0.202456
7.334896,-0.180201
7.338804,-0.157218
7.342712,-0.135917
7.346620,-0.117230
7.350528,-0.101866
7.354435,-0.091427
7.358343,-0.088225
7.362251,-0.093804
7.366159,-0.107331
7.370066,-0.125085
7.373974,-0.141581
7.377882,-0.151801
7.381790,-0.153408
7.385698,-0.147814
7.389605,-0.139488
7.393513,-0.133692
7.397421,-0.133663
7.401329,-0.138768
7.405236,-0.144872
7.409144,-0.147004
7.413052,-0.142758
7.416960,-0.134038
7.420868,-0.125557
7.424775,-0.120827
7.428683,-0.118791
7.432591,-0.114558
7.436499,-0.104937
7.440406,-0.095017
7.444314,-0.099220
7.448222,-0.132360
7.452130,-0.193206
7.456038,-0.250900
7.459945,-0.246934
7.463853,-0.118504
7.467761,0.164666
7.471669,0.570017
7.475576,0.999442
7.479484,1.322147
7.483392,1.430367
7.487300,1.289624
7.491208,0.955763
7.495115,0.548561
7.499023,0.196041
7.502931,-0.020368
7.506839,-0.091782
7.510746,-0.069049
7.514654,-0.023652
7.518562,-0.007506
7.522470,-0.033280
7.526377,-0.081285
7.530285,-0.122503
7.534193,-0.140136
7.538101,-0.137059
7.542009,-0.128253
7.545916,-0.127081
7.549824,-0.136096
7.553732,-0.147603
7.557640,-0.151395
7.561547,-0.142805
7.565455,-0.125398
7.569363,-0.107420
7.573271,-0.095497
7.577179,-0.090309
7.581086,-0.086862
7.584994,-0.078581
7.588902,-0.062039
7.592810,-0.039136
7.596717,-0.015561
7.600625,0.003103
7.604533,0.014841
7.608441,0.021978
7.612349,0.028980
7.616256,0.039073
7.620164,0.052215
7.624072,0.065865
7.627980,0.077788
7.631887,0.088609
7.635795,0.102012
7.639703,0.122295
7.643611,0.151055
7.647519,0.185469
7.651426,0.219529
7.655334,0.247469
7.659242,0.267085
7.663150,0.280742
7.667057,0.293558
7.670965,0.310107
7.674873,0.331819
7.678781,0.356509
7.682689,0.379990
7.686596,0.398426
7.690504,0.409927
7.694412,0.414643
7.698320,0.413670
7.702227,0.407643
7.706135,0.395813
7.710043,0.375951
7.713951,0.345103
7.717859,0.301065
7.721766,0.244172
7.725674,0.178545
7.729582,0.111741
7.733490,0.052302
7.737397,0.006067
7.741305,-0.026634
7.745213,-0.050873
7.749121,-0.073707
7.753029,-0.099464
7.756936,-0.126908
7.760844,-0.150473
7.764752,-0.164813
7.768660,-0.169280
7.772567,-0.168769
7.776475,-0.169970
7.780383,-0.175799
7.784291,-0.182509
7.788199,-0.182249
7.792106,-0.169628
7.796014,-0.147371
7.799922,-0.126306
7.803830,-0.118976
7.807737,-0.131095
7.811645,-0.156996
7.815553,-0.182636
7.819461,-0.194322
7.823369,-0.187287
7.827276,-0.168281
7.831184,-0.150563
7.835092,-0.144866
7.839000,-0.152545
7.842907,-0.165393
7.846815,-0.171842
7.850723,-0.164918
7.854631,-0.146443
7.858538,-0.125035
7.862446,-0.109998
7.866354,-0.105767
7.870262,-0.110459
7.874170,-0.118670
7.878077,-0.125701
7.881985,-0.130022
7.885893,-0.132784
7.889801,-0.135624
7.893708,-0.138930
7.897616,-0.141819
7.901524,-0.143307
7.905432,-0.143330
7.909340,-0.142751
7.913247,-0.142675
7.917155,-0.143973
7.921063,-0.147431
7.924971,-0.153984
7.928878,-0.164213
7.932786,-0.177052
7.936694,-0.188830
7.940602,-0.194158
7.944510,-0.188959
7.948417,-0.173915
7.952325,-0.155568
7.956233,-0.143423
7.960141,-0.144333
7.964048,-0.157806
7.967956,-0.175726
7.971864,-0.187143
7.975772,-0.185204
7.979680,-0.171646
7.983587,-0.155795
7.987495,-0.148690
7.991403,-0.156208
7.995311,-0.175689
7.999218,-0.198053
8.003126,-0.213653
8.007034,-0.217812
8.010942,-0.212557
8.014850,-0.203988
8.018757,-0.197604
8.022665,-0.194940
8.026573,-0.193434
8.030481,-0.188980
8.034388,-0.178869
8.038296,-0.163037
8.042204,-0.143276
8.046112,-0.121711
8.050020,-0.100152
8.053927,-0.080732
8.057835,-0.066773
8.061743,-0.062384
8.065651,-0.070381
8.069558,-0.089841
8.073466,-0.115420
8.077374,-0.139576
8.081282,-0.156530
8.085190,-0.165231
8.089097,-0.169107
8.093005,-0.172869
8.096913,-0.178929
8.100821,-0.186200
8.104728,-0.191921
8.108636,-0.194561
8.112544,-0.195018
8.116452,-0.195093
8.120360,-0.194967
8.124267,-0.192572
8.128175,-0.185905
8.132083,-0.176177
8.135991,-0.168295
8.139898,-0.167321
8.143806,-0.173694
8.147714,-0.182227
8.151622,-0.187393
8.155530,-0.191423
8.159437,-0.207137
8.163345,-0.249035
8.167253,-0.314798
8.171161,-0.369273
8.175068,-0.346320
8.178976,-0.175554
8.182884,0.175326
8.186792,0.666026
8.190699,1.181208
8.194607,1.568830
8.198515,1.704166
8.202423,1.547099
8.206331,1.161392
8.210238,0.684714
8.214146,0.265503
8.218054,0.000473
8.221962,-0.095722
8.225869,-0.077447
8.229777,-0.025247
8.233685,-0.000824
8.237593,-0.023668
8.241501,-0.076348
8.245408,-0.127860
8.249316,-0.156772
8.253224,-0.160842
8.257132,-0.151586
8.261039,-0.141978
8.264947,-0.137368
8.268855,-0.134637
8.272763,-0.127596
8.276671,-0.112961
8.280578,-0.092557
8.284486,-0.071348
8.288394,-0.053984
8.292302,-0.042645
8.296209,-0.037050
8.300117,-0.035650
8.304025,-0.036645
8.307933,-0.038327
8.311841,-0.039075
8.315748,-0.037386
8.319656,-0.031909
8.323564,-0.021280
8.327472,-0.003990
8.331379,0.021162
8.335287,0.053749
8.339195,0.090292
8.343103,0.124160
8.347011,0.147792
8.350918,0.156589
8.354826,0.152252
8.358734,0.143085
8.362642,0.140414
8.366549,0.152879
8.370457,0.182043
8.374365,0.222187
8.378273,0.264475
8.382181,0.302657
8.386088,0.336368
8.389996,0.369713
8.393904,0.406217
8.397812,0.443919
8.401719,0.474557
8.405627,0.487892
8.409535,0.478371
8.413443,0.449270
8.417351,0.411042
8.421258,0.374789
8.425166,0.345441
8.429074,0.319480
8.432982,0.288692
8.436889,0.246895
8.440797,0.194524
8.444705,0.137834
8.448613,0.083823
8.452521,0.035276
8.456428,-0.010026
8.460336,-0.055518
8.464244,-0.101051
8.468152,-0.141489
8.472059,-0.170225
8.475967,-0.184768
8.479875,-0.189581
8.483783,-0.193515
8.487691,-0.203653
8.491598,-0.220442
8.495506,-0.237958
8.499414,-0.248975
8.503322,-0.250654
8.507229,-0.246308
8.511137,-0.242131
8.515045,-0.241964
8.518953,-0.244607
8.522860,-0.245724
8.526768,-0.242323
8.530676,-0.235706
8.534584,-0.230328
8.538492,-0.229702
8.542399,-0.233095
8.546307,-0.235959
8.550215,-0.233732
8.554123,-0.225665
8.558030,-0.215435
8.561938,-0.208186
8.565846,-0.206664
8.569754,-0.209677
8.573662,-0.213838
8.577569,-0.216731
8.581477,-0.218610
8.585385,-0.221369
8.589293,-0.226040
8.593200,-0.231316
8.597108,-0.234462
8.601016,-0.233604
8.604924,-0.229112
8.608832,-0.222758
8.612739,-0.215713
8.616647,-0.207752
8.620555,-0.198789
8.624463,-0.191215
8.628370,-0.190128
8.632278,-0.200175
8.636186,-0.221056
8.640094,-0.245626
8.644002,-0.263005
8.647909,-0.265125
8.651817,-0.252154
8.655725,-0.232734
8.659633,-0.218663
8.663540,-0.217682
8.667448,-0.229254
8.671356,-0.245911
8.675264,-0.258742
8.679172,-0.262912
8.683079,-0.259613
8.686987,-0.253876
8.690895,-0.250552
8.694803,-0.251520
8.698710,-0.255513
8.702618,-0.259810
8.706526,-0.262028
8.710434,-0.260875
8.714342,-0.255963
8.718249,-0.247498
8.722157,-0.236365
8.726065,-0.224461
8.729973,-0.214617
8.733880,-0.209686
8.737788,-0.210953
8.741696,-0.216700
8.745604,-0.221994
8.749512,-0.220384
8.753419,-0.207143
8.757327,-0.182512
8.761235,-0.152878
8.765143,-0.128676
8.769050,-0.119622
8.772958,-0.129729
8.776866,-0.155077
8.780774,-0.185916
8.784682,-0.212024
8.788589,-0.228105
8.792497,-0.235856
8.796405,-0.241579
8.800313,-0.251194
8.804220,-0.266126
8.808128,-0.282642
8.812036,-0.294635
8.815944,-0.297583
8.819852,-0.291021
8.823759,-0.278330
8.827667,-0.264577
8.831575,-0.254040
8.835483,-0.248633
8.839390,-0.247560
8.843298,-0.248191
8.847206,-0.248320
8.851114,-0.249408
8.855021,-0.258750
8.858929,-0.287128
8.862837,-0.339877
8.866745,-0.404228
8.870653,-0.441490
8.874560,-0.393841
8.878468,-0.208978
8.882376,0.126325
8.886284,0.562631
8.890191,0.992394
8.894099,1.287203
8.898007,1.352589
8.901915,1.172272
8.905823,0.816872
8.909730,0.411095
8.913638,0.076816
8.917546,-0.117271
8.921454,-0.174105
8.925361,-0.149308
8.929269,-0.110756
8.933177,-0.102200
8.937085,-0.129699
8.940993,-0.172730
8.944900,-0.206916
8.948808,-0.221366
8.952716,-0.221303
8.956624,-0.218561
8.960531,-0.220052
8.964439,-0.223158
8.968347,-0.219915
8.972255,-0.204970
8.976163,-0.180506
8.980070,-0.154854
8.983978,-0.136740
8.987886,-0.129932
8.991794,-0.131793
8.995701,-0.135833
8.999609,-0.135725
9.003517,-0.128129
9.007425,-0.113306
9.011333,-0.094133
9.015240,-0.074594
9.019148,-0.058328
9.023056,-0.047380
9.026964,-0.041302
9.030871,-0.037054
9.034779,-0.030076
9.038687,-0.016304
9.042595,0.005840
9.046503,0.034705
9.050410,0.066522
9.054318,0.097735
9.058226,0.127006
9.062134,0.155535
9.066041,0.185453
9.069949,0.217418
9.073857,0.249212
9.077765,0.276553
9.081673,0.295843
9.085580,0.307016
9.089488,0.314308
9.093396,0.323990
9.097304,0.340271
9.101211,0.362133
9.105119,0.383441
9.109027,0.396431
9.112935,0.396154
9.116843,0.382668
9.120750,0.359419
9.124658,0.329204
9.128566,0.291104
9.132474,0.241156
9.136381,0.176592
9.140289,0.100425
9.144197,0.022471
9.148105,-0.044632
9.152013,-0.092097
9.155920,-0.119822
9.159828,-0.135917
9.163736,-0.151154
9.167644,-0.172066
9.171551,-0.197371
9.175459,-0.219947
9.179367,-0.232671
9.183275,-0.233836
9.187182,-0.228432
9.191090,-0.224729
9.194998,-0.228968
9.198906,-0.242002
9.202814,-0.259913
9.206721,-0.277501
9.210629,-0.291652
9.214537,-0.302155
9.218445,-0.309859
9.222352,-0.314289
9.226260,-0.313129
9.230168,-0.304233
9.234076,-0.288438
9.237984,-0.270498
9.241891,-0.256851
9.245799,-0.251536
9.249707,-0.253296
9.253615,-0.256270
9.257522,-0.254079
9.261430,-0.244553
9.265338,-0.231682
9.269246,-0.223192
9.273154,-0.225288
9.277061,-0.238176
9.280969,-0.255521
9.284877,-0.268278
9.288785,-0.270247
9.292692,-0.261607
9.296600,-0.248194
9.300508,-0.237235
9.304416,-0.232640
9.308324,-0.233002
9.312231,-0.233410
9.316139,-0.229474
9.320047,-0.220571
9.323955,-0.210168
9.327862,-0.203277
9.331770,-0.203065
9.335678,-0.208938
9.339586,-0.217194
9.343494,-0.223479
9.347401,-0.225272
9.351309,-0.222928
9.355217,-0.218959
9.359125,-0.216368
9.363032,-0.217109
9.366940,-0.221296
9.370848,-0.227204
9.374756,-0.231902
9.378664,-0.232415
9.382571,-0.227164
9.386479,-0.217110
9.390387,-0.205721
9.394295,-0.197309
9.398202,-0.194316
9.402110,-0.195147
9.406018,-0.194241
9.409926,-0.184914
9.413834,-0.163692
9.417741,-0.133521
9.421649,-0.103473
9.425557,-0.084489
9.429465,-0.083365
9.433372,-0.098720
9.437280,-0.121864
9.441188,-0.142367
9.445096,-0.154768
9.449004,-0.161680
9.452911,-0.170846
9.456819,-0.188029
9.460727,-0.211004
9.464635,-0.229564
9.468542,-0.232267
9.472450,-0.215444
9.476358,-0.187672
9.480266,-0.165620
9.484174,-0.163344
9.488081,-0.182403
9.491989,-0.210276
9.495897,-0.228862
9.499805,-0.227277
9.503712,-0.209452
9.507620,-0.190563
9.511528,-0.184859
9.515436,-0.194453
9.519343,-0.208440
9.523251,-0.213647
9.527159,-0.208402
9.531067,-0.206713
9.534975,-0.226313
9.538882,-0.266748
9.542790,-0.293861
9.546698,-0.246232
9.550606,-0.066029
9.554513,0.260731
9.558421,0.679446
9.562329,1.076795
9.566237,1.325074
9.570145,1.339743
9.574052,1.119529
9.577960,0.747120
9.581868,0.350253
9.585776,0.044520
9.589683,-0.112175
9.593591,-0.132336
9.597499,-0.077123
9.601407,-0.016661
9.605315,0.004385
9.609222,-0.020222
9.613130,-0.068231
9.617038,-0.110608
9.620946,-0.130082
9.624853,-0.127207
9.628761,-0.114150
9.632669,-0.103503
9.636577,-0.100295
9.640485,-0.101200
9.644392,-0.099333
9.648300,-0.090035
9.652208,-0.073687
9.656116,-0.054672
9.660023,-0.038221
9.663931,-0.027634
9.667839,-0.023249
9.671747,-0.022989
9.675655,-0.023551
9.679562,-0.021550
9.683470,-0.014468
9.687378,-0.001444
9.691286,0.016358
9.695193,0.036260
9.699101,0.055600
9.703009,0.073550
9.706917,0.091962
9.710825,0.114320
9.714732,0.143227
9.718640,0.178124
9.722548,0.215078
9.726456,0.249017
9.730363,0.276913
9.734271,0.299568
9.738179,0.320666
9.742087,0.343770
9.745995,0.369503
9.749902,0.395037
9.753810,0.416254
9.757718,0.430924
9.761626,0.440550
9.765533,0.449546
9.769441,0.462358
9.773349,0.480455
9.777257,0.501053
9.781165,0.518237
9.785072,0.525677
9.788980,0.519298
9.792888,0.498454
9.796796,0.465219
9.800703,0.422545
9.804611,0.372653
9.808519,0.316603
9.812427,0.255126
9.816335,0.189873
9.820242,0.124037
9.824150,0.061811
9.828058,0.007068
9.831966,-0.037812
9.835873,-0.072204
9.839781,-0.096602
9.843689,-0.111814
9.847597,-0.118764
9.851504,-0.119026
9.855412,-0.115409
9.859320,-0.111656
9.863228,-0.110966
9.867136,-0.114073
9.871043,-0.118318
9.874951,-0.118768
9.878859,-0.111184
9.882767,-0.095153
9.886674,-0.075230
9.890582,-0.058926
9.894490,-0.052515
9.898398,-0.057276
9.902306,-0.068780
9.906213,-0.079822
9.910121,-0.085034
9.914029,-0.083999
9.917937,-0.080768
9.921844,-0.080296
9.925752,-0.084503
9.929660,-0.090831
9.933568,-0.094238
9.937476,-0.091066
9.941383,-0.081860
9.945291,-0.071041
9.949199,-0.063675
9.953107,-0.061786
9.957014,-0.062998
9.960922,-0.062427
9.964830,-0.056325
9.968738,-0.044760
9.972646,-0.031531
9.976553,-0.021651
9.980461,-0.018341
9.984369,-0.021495
9.988277,-0.028324
9.992184,-0.035387
9.996092,-0.040603
10.000000,-0.044098
