time,ecg
0.000000,-0.317179
0.003908,-0.297884
0.007816,-0.283045
0.011723,-0.275579
0.015631,-0.275578
0.019539,-0.279920
0.023447,-0.283405
0.027354,-0.281309
0.031262,-0.272078
0.035170,-0.258471
0.039078,-0.246262
0.042986,-0.241123
0.046893,-0.245516
0.050801,-0.257385
0.054709,-0.271411
0.058617,-0.282052
0.062524,-0.286603
0.066432,-0.286415
0.070340,-0.285577
0.074248,-0.287952
0.078156,-0.294608
0.082063,-0.303422
0.085971,-0.311122
0.089879,-0.316116
0.093787,-0.319815
0.097694,-0.325242
0.101602,-0.333973
0.105510,-0.344062
0.109418,-0.351032
0.113326,-0.351504
0.117233,-0.346492
0.121141,-0.341169
0.125049,-0.340716
0.128957,-0.345483
0.132864,-0.349909
0.136772,-0.346922
0.140680,-0.334580
0.144588,-0.319053
0.148496,-0.310353
0.152403,-0.313573
0.156311,-0.323205
0.160219,-0.326608
0.164127,-0.314786
0.168034,-0.290682
0.171942,-0.264776
0.175850,-0.237505
0.179758,-0.181393
0.183665,-0.041546
0.187573,0.236090
0.191481,0.659707
0.195389,1.158258
0.199297,1.587874
0.203204,1.784829
0.207112,1.641574
0.211020,1.164035
0.214928,0.475996
0.218835,-0.233471
0.222743,-0.790505
0.226651,-1.101398
0.230559,-1.171092
0.234467,-1.074122
0.238374,-0.903188
0.242282,-0.727403
0.246190,-0.578484
0.250098,-0.461495
0.254005,-0.373130
0.257913,-0.312084
0.261821,-0.277938
0.265729,-0.265618
0.269637,-0.264103
0.273544,-0.261578
0.277452,-0.252222
0.281360,-0.238389
0.285268,-0.226555
0.289175,-0.220883
0.293083,-0.219884
0.296991,-0.218372
0.300899,-0.212234
0.304807,-0.201575
0.308714,-0.189823
0.312622,-0.180144
0.316530,-0.172629
0.320438,-0.164552
0.324345,-0.153038
0.328253,-0.137493
0.332161,-0.119658
0.336069,-0.101566
0.339977,-0.083508
0.343884,-0.063884
0.347792,-0.040970
0.351700,-0.014811
0.355608,0.012542
0.359515,0.038673
0.363423,0.062854
0.367331,0.086749
0.371239,0.113234
0.375147,0.144380
0.379054,0.180164
0.382962,0.218685
0.386870,0.257452
0.390778,0.294570
0.394685,0.329042
0.398593,0.360221
0.402501,0.387161
0.406409,0.408545
0.410317,0.423315
0.414224,0.431459
0.418132,0.434241
0.422040,0.433568
0.425948,0.430873
0.429855,0.426279
0.433763,0.418597
0.437671,0.406100
0.441579,0.387477
0.445487,0.362337
0.449394,0.331096
0.453302,0.294572
0.457210,0.253789
0.461118,0.210119
0.465025,0.165429
0.468933,0.121744
0.472841,0.080435
0.476749,0.041475
0.480657,0.003475
0.484564,-0.035353
0.488472,-0.075899
0.492380,-0.117337
0.496288,-0.157293
0.500195,-0.192798
0.504103,-0.221486
0.508011,-0.242490
0.511919,-0.256739
0.515826,-0.266617
0.519734,-0.275025
0.523642,-0.284192
0.527550,-0.294736
0.531458,-0.305559
0.535365,-0.314721
0.539273,-0.320831
0.543181,-0.324043
0.547089,-0.325936
0.550996,-0.328287
0.554904,-0.331598
0.558812,-0.334520
0.562720,-0.334724
0.566628,-0.330638
0.570535,-0.322785
0.574443,-0.313682
0.578351,-0.306308
0.582259,-0.302184
0.586166,-0.300431
0.590074,-0.298461
0.593982,-0.293782
0.597890,-0.285642
0.601798,-0.275399
0.605705,-0.265466
0.609613,-0.257684
0.613521,-0.252292
0.617429,-0.248196
0.621336,-0.244203
0.625244,-0.240207
0.629152,-0.237388
0.633060,-0.237249
0.636968,-0.240263
0.640875,-0.245209
0.644783,-0.249733
0.648691,-0.251765
0.652599,-0.250821
0.656506,-0.248344
0.660414,-0.246850
0.664322,-0.248373
0.668230,-0.253126
0.672138,-0.259229
0.676045,-0.263742
0.679953,-0.264380
0.683861,-0.260804
0.687769,-0.254637
0.691676,-0.248213
0.695584,-0.242913
0.699492,-0.238163
0.703400,-0.231791
0.707308,-0.221616
0.711215,-0.207394
0.715123,-0.191906
0.719031,-0.180278
0.722939,-0.177675
0.726846,-0.186562
0.730754,-0.205127
0.734662,-0.227854
0.738570,-0.248019
0.742478,-0.260822
0.746385,-0.265499
0.750293,-0.265250
0.754201,-0.265000
0.758109,-0.268317
0.762016,-0.275435
0.765924,-0.283713
0.769832,-0.290145
0.773740,-0.293977
0.777648,-0.297278
0.781555,-0.302850
0.785463,-0.311127
0.789371,-0.318876
0.793279,-0.321268
0.797186,-0.316028
0.801094,-0.306134
0.805002,-0.298225
0.808910,-0.297331
0.812818,-0.302098
0.816725,-0.305036
0.820633,-0.298614
0.824541,-0.282691
0.828449,-0.266604
0.832356,-0.262728
0.836264,-0.275695
0.840172,-0.296384
0.844080,-0.307299
0.847987,-0.296452
0.851895,-0.267860
0.855803,-0.236735
0.859711,-0.208737
0.863619,-0.158018
0.867526,-0.025484
0.871434,0.251342
0.875342,0.688188
0.879250,1.214863
0.883157,1.678988
0.887065,1.901702
0.890973,1.761093
0.894881,1.257649
0.898789,0.522694
0.902696,-0.237125
0.906604,-0.829047
0.910512,-1.148680
0.914420,-1.203256
0.918327,-1.079819
0.922235,-0.885596
0.926143,-0.697970
0.930051,-0.547385
0.933959,-0.431216
0.937866,-0.338705
0.941774,-0.266594
0.945682,-0.218455
0.949590,-0.195086
0.953497,-0.188225
0.957405,-0.183757
0.961313,-0.170839
0.965221,-0.148500
0.969129,-0.124359
0.973036,-0.107272
0.976944,-0.100328
0.980852,-0.099423
0.984760,-0.097405
0.988667,-0.089604
0.992575,-0.076338
0.996483,-0.061255
1.000391,-0.047707
1.004299,-0.036304
1.008206,-0.025087
1.012114,-0.011482
1.016022,0.005819
1.019930,0.026320
1.023837,0.048507
1.027745,0.071027
1.031653,0.093384
1.035561,0.115881
1.039469,0.139133
1.043376,0.163650
1.047284,0.189674
1.051192,0.217208
1.055100,0.246126
1.059007,0.276309
1.062915,0.307784
1.066823,0.340696
1.070731,0.374943
1.074639,0.409598
1.078546,0.442606
1.082454,0.471236
1.086362,0.493212
1.090270,0.507838
1.094177,0.516264
1.098085,0.520619
1.101993,0.522569
1.105901,0.522330
1.109809,0.518863
1.113716,0.511100
1.117624,0.499205
1.121532,0.484777
1.125440,0.469702
1.129347,0.454440
1.133255,0.437083
1.137163,0.414063
1.141071,0.382219
1.144979,0.340863
1.148886,0.292468
1.152794,0.241500
1.156702,0.192233
1.160610,0.146974
1.164517,0.105726
1.168425,0.067217
1.172333,0.030340
1.176241,-0.005030
1.180148,-0.038184
1.184056,-0.068294
1.187964,-0.094967
1.191872,-0.118243
1.195780,-0.138235
1.199687,-0.154807
1.203595,-0.167563
1.207503,-0.176116
1.211411,-0.180403
1.215318,-0.180867
1.219226,-0.178406
1.223134,-0.174136
1.227042,-0.169139
1.230950,-0.164283
1.234857,-0.160125
1.238765,-0.156864
1.242673,-0.154362
1.246581,-0.152301
1.250488,-0.150405
1.254396,-0.148599
1.258304,-0.146976
1.262212,-0.145622
1.266120,-0.144414
1.270027,-0.142977
1.273935,-0.140833
1.277843,-0.137733
1.281751,-0.133971
1.285658,-0.130426
1.289566,-0.128183
1.293474,-0.127922
1.297382,-0.129478
1.301290,-0.131940
1.305197,-0.134253
1.309105,-0.135946
1.313013,-0.137475
1.316921,-0.139915
1.320828,-0.144237
1.324736,-0.150705
1.328644,-0.158811
1.332552,-0.167644
1.336460,-0.176295
1.340367,-0.183992
1.344275,-0.190051
1.348183,-0.193902
1.352091,-0.195320
1.355998,-0.194746
1.359906,-0.193397
1.363814,-0.192946
1.367722,-0.194780
1.371630,-0.199166
1.375537,-0.204858
1.379445,-0.209566
1.383353,-0.211164
1.387261,-0.208911
1.391168,-0.203818
1.395076,-0.197808
1.398984,-0.192230
1.402892,-0.186816
1.406800,-0.179918
1.410707,-0.170003
1.414615,-0.157442
1.418523,-0.145276
1.422431,-0.138172
1.426338,-0.139940
1.430246,-0.151079
1.434154,-0.168044
1.438062,-0.184870
1.441970,-0.196281
1.445877,-0.200335
1.449785,-0.198983
1.453693,-0.196294
1.457601,-0.195680
1.461508,-0.198110
1.465416,-0.202427
1.469324,-0.207232
1.473232,-0.212515
1.477140,-0.219495
1.481047,-0.228758
1.484955,-0.238494
1.488863,-0.244881
1.492771,-0.244932
1.496678,-0.239617
1.500586,-0.234165
1.504494,-0.234416
1.508402,-0.241678
1.512309,-0.250670
1.516217,-0.253200
1.520125,-0.245397
1.524033,-0.232407
1.527941,-0.225535
1.531848,-0.232853
1.535756,-0.250662
1.539664,-0.264099
1.543572,-0.258357
1.547479,-0.231974
1.551387,-0.199080
1.555295,-0.174082
1.559203,-0.147213
1.563111,-0.071306
1.567018,0.122326
1.570926,0.479553
1.574834,0.974545
1.578742,1.490720
1.582649,1.853032
1.586557,1.902503
1.590465,1.574981
1.594373,0.939304
1.598281,0.171533
1.602188,-0.521342
1.606096,-0.986413
1.610004,-1.174613
1.613912,-1.135235
1.617819,-0.968297
1.621727,-0.768446
1.625635,-0.591179
1.629543,-0.451548
1.633451,-0.343711
1.637358,-0.261016
1.641266,-0.203251
1.645174,-0.171672
1.649082,-0.161594
1.652989,-0.161297
1.656897,-0.158088
1.660805,-0.145553
1.664713,-0.125711
1.668621,-0.104932
1.672528,-0.087767
1.676436,-0.073845
1.680344,-0.059597
1.684252,-0.042340
1.688159,-0.022829
1.692067,-0.004314
1.695975,0.010587
1.699883,0.022289
1.703791,0.033940
1.707698,0.048956
1.711606,0.068655
1.715514,0.091850
1.719422,0.116383
1.723329,0.141007
1.727237,0.165975
1.731145,0.192100
1.735053,0.219421
1.738961,0.246781
1.742868,0.272710
1.746776,0.296758
1.750684,0.320103
1.754592,0.344914
1.758499,0.372943
1.762407,0.404372
1.766315,0.437661
1.770223,0.470429
1.774131,0.500752
1.778038,0.527980
1.781946,0.552508
1.785854,0.574645
1.789762,0.593428
1.793669,0.606378
1.797577,0.610588
1.801485,0.604549
1.805393,0.589488
1.809301,0.569190
1.813208,0.548243
1.817116,0.529725
1.821024,0.513802
1.824932,0.498087
1.828839,0.479427
1.832747,0.455810
1.836655,0.427186
1.840563,0.394892
1.844470,0.360365
1.848378,0.324161
1.852286,0.285891
1.856194,0.244940
1.860102,0.201388
1.864009,0.156518
1.867917,0.112579
1.871825,0.071965
1.875733,0.036254
1.879640,0.005685
1.883548,-0.020607
1.887456,-0.043780
1.891364,-0.064442
1.895272,-0.082325
1.899179,-0.096662
1.903087,-0.106923
1.906995,-0.113395
1.910903,-0.117180
1.914810,-0.119635
1.918718,-0.121613
1.922626,-0.123034
1.926534,-0.123091
1.930442,-0.120958
1.934349,-0.116590
1.938257,-0.111079
1.942165,-0.106294
1.946073,-0.103956
1.949980,-0.104622
1.953888,-0.107183
1.957796,-0.109269
1.961704,-0.108478
1.965612,-0.103822
1.969519,-0.096438
1.973427,-0.088965
1.977335,-0.083867
1.981243,-0.081779
1.985150,-0.081099
1.989058,-0.079165
1.992966,-0.074196
1.996874,-0.066622
2.000782,-0.058891
2.004689,-0.053964
2.008597,-0.053569
2.012505,-0.057344
2.016413,-0.063279
2.020320,-0.069063
2.024228,-0.073445
2.028136,-0.076772
2.032044,-0.080453
2.035952,-0.085730
2.039859,-0.092606
2.043767,-0.099667
2.047675,-0.104922
2.051583,-0.107030
2.055490,-0.106060
2.059398,-0.103285
2.063306,-0.100272
2.067214,-0.098018
2.071122,-0.096752
2.075029,-0.096393
2.078937,-0.097050
2.082845,-0.098933
2.086753,-0.101659
2.090660,-0.103622
2.094568,-0.102220
2.098476,-0.095142
2.102384,-0.081997
2.106292,-0.065150
2.110199,-0.048991
2.114107,-0.037991
2.118015,-0.034699
2.121923,-0.038800
2.125830,-0.047514
2.129738,-0.056843
2.133646,-0.063023
2.137554,-0.063800
2.141462,-0.059321
2.145369,-0.052277
2.149277,-0.046858
2.153185,-0.046600
2.157093,-0.052205
2.161000,-0.060870
2.164908,-0.067958
2.168816,-0.070133
2.172724,-0.067767
2.176631,-0.064717
2.180539,-0.065457
2.184447,-0.071723
2.188355,-0.081346
2.192263,-0.090297
2.196170,-0.096168
2.200078,-0.099870
2.203986,-0.103884
2.207894,-0.108695
2.211801,-0.111248
2.215709,-0.107664
2.219617,-0.098215
2.223525,-0.089503
2.227433,-0.090423
2.231340,-0.104198
2.235248,-0.123547
2.239156,-0.134803
2.243064,-0.129129
2.246971,-0.110892
2.250879,-0.092711
2.254787,-0.076599
2.258695,-0.034571
2.262603,0.091613
2.266510,0.361322
2.270418,0.787556
2.274326,1.300630
2.278234,1.752937
2.282141,1.972927
2.286049,1.844884
2.289957,1.371009
2.293865,0.678792
2.297773,-0.032835
2.301680,-0.579555
2.305588,-0.863465
2.309496,-0.895295
2.313404,-0.763099
2.317311,-0.573620
2.321219,-0.402711
2.325127,-0.277958
2.329035,-0.192234
2.332943,-0.129159
2.336850,-0.080328
2.340758,-0.046606
2.344666,-0.029702
2.348574,-0.025379
2.352481,-0.024555
2.356389,-0.019765
2.360297,-0.010048
2.364205,0.000142
2.368113,0.006384
2.372020,0.008800
2.375928,0.011834
2.379836,0.020076
2.383744,0.034278
2.387651,0.051003
2.391559,0.065798
2.395467,0.076812
2.399375,0.085781
2.403283,0.095978
2.407190,0.109304
2.411098,0.125079
2.415006,0.141249
2.418914,0.156524
2.422821,0.171449
2.426729,0.187659
2.430637,0.206296
2.434545,0.227089
2.438453,0.248766
2.442360,0.270165
2.446268,0.290943
2.450176,0.311376
2.454084,0.331727
2.457991,0.351975
2.461899,0.372123
2.465807,0.392567
2.469715,0.413859
2.473623,0.435895
2.477530,0.457265
2.481438,0.475509
2.485346,0.488273
2.489254,0.494536
2.493161,0.494989
2.497069,0.491348
2.500977,0.485217
2.504885,0.477393
2.508792,0.467993
2.512700,0.457025
2.516608,0.444713
2.520516,0.431262
2.524424,0.416370
2.528331,0.399029
2.532239,0.377897
2.536147,0.351996
2.540055,0.321288
2.543962,0.286785
2.547870,0.250182
2.551778,0.213217
2.555686,0.177059
2.559594,0.141984
2.563501,0.107483
2.567409,0.072732
2.571317,0.037185
2.575225,0.001011
2.579132,-0.034770
2.583040,-0.068471
2.586948,-0.098179
2.590856,-0.122349
2.594764,-0.140361
2.598671,-0.152780
2.602579,-0.161090
2.606487,-0.166952
2.610395,-0.171409
2.614302,-0.174556
2.618210,-0.175940
2.622118,-0.175371
2.626026,-0.173469
2.629934,-0.171454
2.633841,-0.170306
2.637749,-0.169964
2.641657,-0.169301
2.645565,-0.167017
2.649472,-0.162807
2.653380,-0.157828
2.657288,-0.154015
2.661196,-0.152677
2.665104,-0.153505
2.669011,-0.154764
2.672919,-0.154563
2.676827,-0.152160
2.680735,-0.148338
2.684642,-0.144675
2.688550,-0.142476
2.692458,-0.142202
2.696366,-0.143681
2.700274,-0.146586
2.704181,-0.150652
2.708089,-0.155511
2.711997,-0.160573
2.715905,-0.165305
2.719812,-0.169788
2.723720,-0.174999
2.727628,-0.182332
2.731536,-0.192486
2.735444,-0.204477
2.739351,-0.215611
2.743259,-0.222661
2.747167,-0.223581
2.751075,-0.218670
2.754982,-0.210451
2.758890,-0.202354
2.762798,-0.196975
2.766706,-0.194909
2.770614,-0.194727
2.774521,-0.193981
2.778429,-0.190565
2.782337,-0.183641
2.786245,-0.173793
2.790152,-0.162550
2.794060,-0.151685
2.797968,-0.142584
2.801876,-0.135758
2.805784,-0.130556
2.809691,-0.125335
2.813599,-0.118384
2.817507,-0.109409
2.821415,-0.100664
2.825322,-0.096533
2.829230,-0.101194
2.833138,-0.115521
2.837046,-0.135376
2.840953,-0.152975
2.844861,-0.160975
2.848769,-0.156812
2.852677,-0.144260
2.856585,-0.130949
2.860492,-0.123482
2.864400,-0.123626
2.868308,-0.128208
2.872216,-0.132493
2.876123,-0.134121
2.880031,-0.134439
2.883939,-0.136406
2.887847,-0.141302
2.891755,-0.147397
2.895662,-0.151795
2.899570,-0.153495
2.903478,-0.154479
2.907386,-0.157536
2.911293,-0.162932
2.915201,-0.167528
2.919109,-0.167824
2.923017,-0.164338
2.926925,-0.162672
2.930832,-0.169081
2.934740,-0.183744
2.938648,-0.198228
2.942556,-0.200980
2.946463,-0.187188
2.950371,-0.163290
2.954279,-0.138412
2.958187,-0.105687
2.962095,-0.028349
2.966002,0.152083
2.969910,0.480844
2.973818,0.944655
2.977726,1.446830
2.981633,1.827477
2.985541,1.927643
2.989449,1.666520
2.993357,1.088074
2.997265,0.348341
3.001172,-0.351411
3.005080,-0.849072
3.008988,-1.078795
3.012896,-1.075087
3.016803,-0.930973
3.020711,-0.741603
3.024619,-0.566320
3.028527,-0.423459
3.032435,-0.308866
3.036342,-0.217275
3.040250,-0.150823
3.044158,-0.113581
3.048066,-0.102342
3.051973,-0.104343
3.055881,-0.104140
3.059789,-0.093112
3.063697,-0.073385
3.067605,-0.053530
3.071512,-0.040404
3.075420,-0.033989
3.079328,-0.028648
3.083236,-0.018619
3.087143,-0.002627
3.091051,0.015899
3.094959,0.032372
3.098867,0.044836
3.102775,0.055016
3.106682,0.066412
3.110590,0.081610
3.114498,0.101010
3.118406,0.123437
3.122313,0.147470
3.126221,0.172152
3.130129,0.196798
3.134037,0.220682
3.137945,0.243287
3.141852,0.264982
3.145760,0.287299
3.149668,0.312260
3.153576,0.341078
3.157483,0.373220
3.161391,0.406579
3.165299,0.438682
3.169207,0.468046
3.173114,0.494733
3.177022,0.519732
3.180930,0.543693
3.184838,0.566029
3.188746,0.585062
3.192653,0.599055
3.196561,0.607289
3.200469,0.610353
3.204377,0.609439
3.208284,0.605254
3.212192,0.597426
3.216100,0.584893
3.220008,0.567037
3.223916,0.544674
3.227823,0.520095
3.231731,0.495972
3.235639,0.473769
3.239547,0.452702
3.243454,0.429957
3.247362,0.402101
3.251270,0.366849
3.255178,0.324183
3.259086,0.276318
3.262993,0.226738
3.266901,0.178978
3.270809,0.135708
3.274717,0.098323
3.278624,0.066939
3.282532,0.040652
3.286440,0.018010
3.290348,-0.002360
3.294256,-0.021126
3.298163,-0.037958
3.302071,-0.051747
3.305979,-0.061309
3.309887,-0.066193
3.313794,-0.067182
3.317702,-0.066197
3.321610,-0.065602
3.325518,-0.067209
3.329426,-0.071422
3.333333,-0.076976
3.337241,-0.081492
3.341149,-0.082639
3.345057,-0.079350
3.348964,-0.072424
3.352872,-0.064158
3.356780,-0.057216
3.360688,-0.053376
3.364596,-0.052841
3.368503,-0.054391
3.372411,-0.056171
3.376319,-0.056636
3.380227,-0.055214
3.384134,-0.052445
3.388042,-0.049559
3.391950,-0.047739
3.395858,-0.047436
3.399766,-0.048117
3.403673,-0.048582
3.407581,-0.047743
3.411489,-0.045427
3.415397,-0.042712
3.419304,-0.041435
3.423212,-0.043048
3.427120,-0.047515
3.431028,-0.053106
3.434936,-0.057402
3.438843,-0.058944
3.442751,-0.058322
3.446659,-0.057797
3.450567,-0.059594
3.454474,-0.064114
3.458382,-0.069478
3.462290,-0.072778
3.466198,-0.072106
3.470106,-0.067836
3.474013,-0.062309
3.477921,-0.058246
3.481829,-0.057120
3.485737,-0.058510
3.489644,-0.060645
3.493552,-0.061460
3.497460,-0.059442
3.501368,-0.054058
3.505275,-0.046034
3.509183,-0.037651
3.513091,-0.032691
3.516999,-0.035476
3.520907,-0.048897
3.524814,-0.072308
3.528722,-0.100710
3.532630,-0.126337
3.536538,-0.142300
3.540445,-0.146376
3.544353,-0.142372
3.548261,-0.137768
3.552169,-0.138962
3.556077,-0.147349
3.559984,-0.159081
3.563892,-0.168609
3.567800,-0.173146
3.571708,-0.174512
3.575615,-0.176986
3.579523,-0.183201
3.583431,-0.191794
3.587339,-0.198927
3.591247,-0.202214
3.595154,-0.203191
3.599062,-0.205668
3.602970,-0.211250
3.606878,-0.216448
3.610785,-0.214853
3.614693,-0.203302
3.618601,-0.186540
3.622509,-0.175204
3.626417,-0.177397
3.630324,-0.190543
3.634232,-0.201546
3.638140,-0.196927
3.642048,-0.174971
3.645955,-0.147434
3.649863,-0.124815
3.653771,-0.093599
3.657679,-0.005142
3.661587,0.207029
3.665494,0.583126
3.669402,1.090294
3.673310,1.606623
3.677218,1.956003
3.681125,1.983360
3.685033,1.631785
3.688941,0.977434
3.692849,0.200417
3.696757,-0.493163
3.700664,-0.955281
3.704572,-1.142686
3.708480,-1.107997
3.712388,-0.950227
3.716295,-0.759394
3.720203,-0.585427
3.724111,-0.439910
3.728019,-0.317311
3.731927,-0.214605
3.735834,-0.136498
3.739742,-0.088220
3.743650,-0.066891
3.747558,-0.060541
3.751465,-0.055119
3.755373,-0.042795
3.759281,-0.024735
3.763189,-0.007134
3.767097,0.005230
3.771004,0.012550
3.774912,0.018654
3.778820,0.027011
3.782728,0.037919
3.786635,0.048946
3.790543,0.057673
3.794451,0.064076
3.798359,0.070679
3.802267,0.080668
3.806174,0.095735
3.810082,0.115283
3.813990,0.137325
3.817898,0.160051
3.821805,0.182787
3.825713,0.205868
3.829621,0.229920
3.833529,0.255387
3.837436,0.282586
3.841344,0.311918
3.845252,0.343717
3.849160,0.377775
3.853068,0.413098
3.856975,0.448320
3.860883,0.482547
3.864791,0.515838
3.868699,0.548773
3.872606,0.581318
3.876514,0.611947
3.880422,0.637813
3.884330,0.656006
3.888238,0.665093
3.892145,0.665892
3.896053,0.660945
3.899961,0.653041
3.903869,0.643748
3.907776,0.632878
3.911684,0.619130
3.915592,0.601314
3.919500,0.579241
3.923408,0.553657
3.927315,0.525413
3.931223,0.494642
3.935131,0.460737
3.939039,0.423179
3.942946,0.382463
3.946854,0.340233
3.950762,0.298417
3.954670,0.258079
3.958578,0.218912
3.962485,0.179752
3.966393,0.139680
3.970301,0.098939
3.974209,0.059109
3.978116,0.022483
3.982024,-0.008957
3.985932,-0.034378
3.989840,-0.054272
3.993748,-0.069899
3.997655,-0.082418
4.001563,-0.092333
4.005471,-0.099585
4.009379,-0.104114
4.013286,-0.106324
4.017194,-0.107024
4.021102,-0.106895
4.025010,-0.106020
4.028918,-0.103955
4.032825,-0.100299
4.036733,-0.095267
4.040641,-0.089720
4.044549,-0.084628
4.048456,-0.080448
4.052364,-0.076978
4.056272,-0.073823
4.060180,-0.071045
4.064088,-0.069393
4.067995,-0.069809
4.071903,-0.072591
4.075811,-0.076875
4.079719,-0.080905
4.083626,-0.082965
4.087534,-0.082393
4.091442,-0.080050
4.095350,-0.077922
4.099258,-0.078039
4.103165,-0.081354
4.107073,-0.087232
4.110981,-0.093854
4.114889,-0.099266
4.118796,-0.102423
4.122704,-0.103659
4.126612,-0.104404
4.130520,-0.106333
4.134428,-0.110388
4.138335,-0.116144
4.142243,-0.121909
4.146151,-0.125570
4.150059,-0.125805
4.153966,-0.122950
4.157874,-0.118986
4.161782,-0.116526
4.165690,-0.117320
4.169597,-0.121116
4.173505,-0.125591
4.177413,-0.127510
4.181321,-0.124483
4.185229,-0.116308
4.189136,-0.105067
4.193044,-0.093877
4.196952,-0.085020
4.200860,-0.078609
4.204767,-0.072655
4.208675,-0.064568
4.212583,-0.053176
4.216491,-0.039989
4.220399,-0.028814
4.224306,-0.023815
4.228214,-0.027067
4.232122,-0.037086
4.236030,-0.049382
4.239937,-0.058861
4.243845,-0.062630
4.247753,-0.061375
4.251661,-0.058392
4.255569,-0.057056
4.259476,-0.058570
4.263384,-0.061637
4.267292,-0.064175
4.271200,-0.065605
4.275107,-0.067701
4.279015,-0.073091
4.282923,-0.082491
4.286831,-0.093095
4.290739,-0.099903
4.294646,-0.099369
4.298554,-0.092450
4.302462,-0.084181
4.306370,-0.079594
4.310277,-0.079298
4.314185,-0.078871
4.318093,-0.073281
4.322001,-0.062759
4.325909,-0.054314
4.329816,-0.056186
4.333724,-0.069154
4.337632,-0.082941
4.341540,-0.082945
4.345447,-0.063164
4.349355,-0.033284
4.353263,-0.009623
4.357171,0.007740
4.361079,0.054593
4.364986,0.198022
4.368894,0.499913
4.372802,0.964701
4.376710,1.505056
4.380617,1.955388
4.384525,2.136496
4.388433,1.941206
4.392341,1.393300
4.396249,0.644141
4.400156,-0.093094
4.404064,-0.635412
4.407972,-0.898553
4.411880,-0.909565
4.415787,-0.766079
4.419695,-0.574179
4.423603,-0.402459
4.427511,-0.271709
4.431419,-0.173586
4.435326,-0.096048
4.439234,-0.036435
4.443142,0.001794
4.447050,0.019071
4.450957,0.024477
4.454865,0.031075
4.458773,0.047042
4.462681,0.070894
4.466589,0.094532
4.470496,0.110753
4.474404,0.118630
4.478312,0.122853
4.482220,0.128660
4.486127,0.137435
4.490035,0.146610
4.493943,0.153252
4.497851,0.157529
4.501758,0.162840
4.505666,0.172792
4.509574,0.188034
4.513482,0.205882
4.517390,0.222904
4.521297,0.237946
4.525205,0.252918
4.529113,0.270852
4.533021,0.293173
4.536928,0.318628
4.540836,0.344626
4.544744,0.369602
4.548652,0.394243
4.552560,0.420546
4.556467,0.449550
4.560375,0.479767
4.564283,0.507735
4.568191,0.530392
4.572098,0.547399
4.576006,0.561474
4.579914,0.576329
4.583822,0.593728
4.587730,0.611862
4.591637,0.626273
4.595545,0.632641
4.599453,0.629425
4.603361,0.618585
4.607268,0.604094
4.611176,0.589459
4.615084,0.575942
4.618992,0.562447
4.622900,0.546825
4.626807,0.527499
4.630715,0.504351
4.634623,0.478471
4.638531,0.451155
4.642438,0.422909
4.646346,0.393098
4.650254,0.360443
4.654162,0.324045
4.658070,0.284287
4.661977,0.243027
4.665885,0.202900
4.669793,0.166169
4.673701,0.133822
4.677608,0.105383
4.681516,0.079433
4.685424,0.054472
4.689332,0.029689
4.693240,0.005381
4.697147,-0.017057
4.701055,-0.035583
4.704963,-0.048335
4.708871,-0.054584
4.712778,-0.055360
4.716686,-0.053279
4.720594,-0.051426
4.724502,-0.051776
4.728410,-0.054085
4.732317,-0.056058
4.736225,-0.054829
4.740133,-0.048926
4.744041,-0.039482
4.747948,-0.029880
4.751856,-0.023966
4.755764,-0.023877
4.759672,-0.028783
4.763580,-0.035304
4.767487,-0.039425
4.771395,-0.038817
4.775303,-0.034210
4.779211,-0.028931
4.783118,-0.026810
4.787026,-0.029750
4.790934,-0.036567
4.794842,-0.043954
4.798750,-0.048943
4.802657,-0.051092
4.806565,-0.052735
4.810473,-0.057012
4.814381,-0.065085
4.818288,-0.074677
4.822196,-0.081206
4.826104,-0.080906
4.830012,-0.073770
4.833919,-0.064087
4.837827,-0.058042
4.841735,-0.059920
4.845643,-0.069473
4.849551,-0.082229
4.853458,-0.092438
4.857366,-0.096611
4.861274,-0.095300
4.865182,-0.092111
4.869089,-0.090894
4.872997,-0.093169
4.876905,-0.097478
4.880813,-0.100817
4.884721,-0.100875
4.888628,-0.097398
4.892536,-0.091874
4.896444,-0.086052
4.900352,-0.080599
4.904259,-0.074866
4.908167,-0.067803
4.912075,-0.059181
4.915983,-0.050149
4.919891,-0.042731
4.923798,-0.038719
4.927706,-0.038768
4.931614,-0.042278
4.935522,-0.047962
4.939429,-0.054540
4.943337,-0.061023
4.947245,-0.066550
4.951153,-0.070200
4.955061,-0.071178
4.958968,-0.069337
4.962876,-0.065507
4.966784,-0.061195
4.970692,-0.057734
4.974599,-0.055536
4.978507,-0.054074
4.982415,-0.052563
4.986323,-0.050656
4.990231,-0.048529
4.994138,-0.046454
4.998046,-0.044543
5.001954,-0.043081
5.005862,-0.042919
5.009769,-0.045002
5.013677,-0.048862
5.017585,-0.051393
5.021493,-0.047794
5.025401,-0.035109
5.029308,-0.016057
5.033216,0.000685
5.037124,0.005651
5.041032,-0.003625
5.044939,-0.018717
5.048847,-0.025266
5.052755,-0.014577
5.056663,0.007813
5.060571,0.026792
5.064478,0.036509
5.068386,0.060754
5.072294,0.155574
5.076202,0.382965
5.080109,0.764728
5.084017,1.244315
5.087925,1.686503
5.091833,1.925193
5.095741,1.839267
5.099648,1.415526
5.103556,0.761794
5.107464,0.061210
5.111372,-0.507156
5.115279,-0.838103
5.119187,-0.926078
5.123095,-0.841082
5.127003,-0.677256
5.130911,-0.507276
5.134818,-0.364355
5.138726,-0.251692
5.142634,-0.162863
5.146542,-0.095472
5.150449,-0.051485
5.154357,-0.030138
5.158265,-0.023521
5.162173,-0.019762
5.166081,-0.010444
5.169988,0.004779
5.173896,0.020245
5.177804,0.030639
5.181712,0.035861
5.185619,0.040570
5.189527,0.049579
5.193435,0.063595
5.197343,0.078923
5.201250,0.090927
5.205158,0.097940
5.209066,0.102366
5.212974,0.108447
5.216882,0.118935
5.220789,0.133468
5.224697,0.149663
5.228605,0.165542
5.232513,0.181044
5.236420,0.197507
5.240328,0.215953
5.244236,0.235931
5.248144,0.255962
5.252052,0.275075
5.255959,0.293951
5.259867,0.314594
5.263775,0.338757
5.267683,0.366386
5.271590,0.395334
5.275498,0.422582
5.279406,0.446061
5.283314,0.465751
5.287222,0.483338
5.291129,0.500744
5.295037,0.518628
5.298945,0.535822
5.302853,0.549976
5.306760,0.558836
5.310668,0.561340
5.314576,0.557965
5.318484,0.550328
5.322392,0.540399
5.326299,0.529719
5.330207,0.518946
5.334115,0.507798
5.338023,0.495313
5.341930,0.480217
5.345838,0.461232
5.349746,0.437315
5.353654,0.407941
5.357562,0.373446
5.361469,0.335193
5.365377,0.295339
5.369285,0.256198
5.373193,0.219512
5.377100,0.186073
5.381008,0.155943
5.384916,0.129093
5.388824,0.105904
5.392732,0.087029
5.396639,0.072591
5.400547,0.061436
5.404455,0.051312
5.408363,0.040173
5.412270,0.027755
5.416178,0.016130
5.420086,0.008559
5.423994,0.007285
5.427902,0.011757
5.431809,0.018620
5.435717,0.023607
5.439625,0.024115
5.443533,0.020665
5.447440,0.016251
5.451348,0.014093
5.455256,0.015440
5.459164,0.018953
5.463072,0.021973
5.466979,0.022604
5.470887,0.021019
5.474795,0.019063
5.478703,0.018578
5.482610,0.019759
5.486518,0.020760
5.490426,0.018794
5.494334,0.011930
5.498242,0.000395
5.502149,-0.013426
5.506057,-0.026263
5.509965,-0.035691
5.513873,-0.041288
5.517780,-0.044578
5.521688,-0.047866
5.525596,-0.052737
5.529504,-0.059120
5.533411,-0.065409
5.537319,-0.069536
5.541227,-0.070352
5.545135,-0.068522
5.549043,-0.066349
5.552950,-0.066543
5.556858,-0.070625
5.560766,-0.077955
5.564674,-0.086044
5.568581,-0.091961
5.572489,-0.093958
5.576397,-0.092279
5.580305,-0.088703
5.584213,-0.085230
5.588120,-0.082859
5.592028,-0.081259
5.595936,-0.079425
5.599844,-0.076656
5.603751,-0.073047
5.607659,-0.069160
5.611567,-0.065307
5.615475,-0.061216
5.619383,-0.056505
5.623290,-0.051585
5.627198,-0.048108
5.631106,-0.048378
5.635014,-0.053996
5.638921,-0.064697
5.642829,-0.078240
5.646737,-0.091477
5.650645,-0.101909
5.654553,-0.108816
5.658460,-0.113405
5.662368,-0.118019
5.666276,-0.124864
5.670184,-0.134840
5.674091,-0.146976
5.677999,-0.158798
5.681907,-0.167590
5.685815,-0.171994
5.689723,-0.172999
5.693630,-0.173506
5.697538,-0.176497
5.701446,-0.182993
5.705354,-0.191364
5.709261,-0.198681
5.713169,-0.203115
5.717077,-0.205268
5.720985,-0.207095
5.724893,-0.209365
5.728800,-0.210329
5.732708,-0.207517
5.736616,-0.201479
5.740524,-0.197623
5.744431,-0.203088
5.748339,-0.219982
5.752247,-0.240777
5.756155,-0.251445
5.760063,-0.241837
5.763970,-0.215001
5.767878,-0.184986
5.771786,-0.160164
5.775694,-0.122368
5.779601,-0.020699
5.783509,0.206641
5.787417,0.587980
5.791325,1.076895
5.795233,1.545130
5.799140,1.824342
5.803048,1.781119
5.806956,1.385660
5.810864,0.734006
5.814771,0.009029
5.818679,-0.599041
5.822587,-0.969146
5.826495,-1.083994
5.830403,-1.011196
5.834310,-0.850627
5.838218,-0.682831
5.842126,-0.545003
5.846034,-0.438521
5.849941,-0.352203
5.853849,-0.280737
5.857757,-0.227816
5.861665,-0.197903
5.865572,-0.187991
5.869480,-0.187402
5.873388,-0.184724
5.877296,-0.174916
5.881204,-0.160599
5.885111,-0.147476
5.889019,-0.138712
5.892927,-0.132999
5.896835,-0.126940
5.900742,-0.118514
5.904650,-0.108164
5.908558,-0.096998
5.912466,-0.084522
5.916374,-0.068478
5.920281,-0.047055
5.924189,-0.021290
5.928097,0.004767
5.932005,0.026592
5.935912,0.042459
5.939820,0.054837
5.943728,0.068728
5.947636,0.088201
5.951544,0.113707
5.955451,0.142120
5.959359,0.169316
5.963267,0.193247
5.967175,0.215232
5.971082,0.238726
5.974990,0.266689
5.978898,0.299552
5.982806,0.335042
5.986714,0.369678
5.990621,0.400677
5.994529,0.426981
5.998437,0.448916
6.002345,0.467021
6.006252,0.481109
6.010160,0.490366
6.014068,0.494413
6.017976,0.494330
6.021884,0.492553
6.025791,0.491407
6.029699,0.491239
6.033607,0.489673
6.037515,0.482773
6.041422,0.467500
6.045330,0.443780
6.049238,0.414644
6.053146,0.384234
6.057054,0.354999
6.060961,0.326104
6.064869,0.294213
6.068777,0.256174
6.072685,0.211727
6.076592,0.164319
6.080500,0.119376
6.084408,0.081170
6.088316,0.050464
6.092224,0.024578
6.096131,-0.000197
6.100039,-0.025640
6.103947,-0.050261
6.107855,-0.070505
6.111762,-0.083539
6.115670,-0.089536
6.119578,-0.091856
6.123486,-0.095065
6.127394,-0.102263
6.131301,-0.113502
6.135209,-0.126255
6.139117,-0.137417
6.143025,-0.145325
6.146932,-0.150391
6.150840,-0.154105
6.154748,-0.157449
6.158656,-0.160127
6.162564,-0.161209
6.166471,-0.160451
6.170379,-0.158973
6.174287,-0.158542
6.178195,-0.160046
6.182102,-0.162511
6.186010,-0.163643
6.189918,-0.161622
6.193826,-0.156738
6.197733,-0.151524
6.201641,-0.149164
6.205549,-0.151354
6.209457,-0.157235
6.213365,-0.164143
6.217272,-0.169479
6.221180,-0.172224
6.225088,-0.173107
6.228996,-0.173625
6.232903,-0.174960
6.236811,-0.177649
6.240719,-0.181944
6.244627,-0.188137
6.248535,-0.196256
6.252442,-0.205313
6.256350,-0.212995
6.260258,-0.216517
6.264166,-0.214451
6.268073,-0.208245
6.271981,-0.201996
6.275889,-0.200123
6.279797,-0.204379
6.283705,-0.212465
6.287612,-0.219520
6.291520,-0.221517
6.295428,-0.217924
6.299336,-0.211534
6.303243,-0.205646
6.307151,-0.201004
6.311059,-0.195107
6.314967,-0.184497
6.318875,-0.168153
6.322782,-0.149119
6.326690,-0.133018
6.330598,-0.124595
6.334506,-0.124981
6.338413,-0.131555
6.342321,-0.140124
6.346229,-0.147517
6.350137,-0.152718
6.354045,-0.156227
6.357952,-0.158760
6.361860,-0.160628
6.365768,-0.162118
6.369676,-0.164041
6.373583,-0.167525
6.377491,-0.173044
6.381399,-0.179705
6.385307,-0.185684
6.389215,-0.189576
6.393122,-0.191481
6.397030,-0.192783
6.400938,-0.194890
6.404846,-0.198174
6.408753,-0.202085
6.412661,-0.206083
6.416569,-0.210057
6.420477,-0.213516
6.424385,-0.214499
6.428292,-0.210122
6.432200,-0.199377
6.436108,-0.186059
6.440016,-0.178207
6.443923,-0.182680
6.447831,-0.198262
6.451739,-0.213782
6.455647,-0.215005
6.459555,-0.196321
6.463462,-0.166656
6.467370,-0.140653
6.471278,-0.117340
6.475186,-0.061940
6.479093,0.089553
6.483001,0.395480
6.486909,0.858414
6.490817,1.392178
6.494725,1.835050
6.498632,2.012593
6.502540,1.820808
6.506448,1.283060
6.510356,0.546233
6.514263,-0.183469
6.518171,-0.729352
6.522079,-1.009442
6.525987,-1.047382
6.529894,-0.932746
6.533802,-0.762321
6.537710,-0.598293
6.541618,-0.460762
6.545526,-0.346529
6.549433,-0.251910
6.553341,-0.181754
6.557249,-0.142752
6.561157,-0.132394
6.565064,-0.136078
6.568972,-0.135431
6.572880,-0.120356
6.576788,-0.094586
6.580696,-0.070628
6.584603,-0.058883
6.588511,-0.059789
6.592419,-0.064436
6.596327,-0.061960
6.600234,-0.047218
6.604142,-0.023127
6.608050,0.003008
6.611958,0.025358
6.615866,0.042968
6.619773,0.058858
6.623681,0.076510
6.627589,0.096957
6.631497,0.118504
6.635404,0.138720
6.639312,0.156735
6.643220,0.174013
6.647128,0.193169
6.651036,0.215904
6.654943,0.241660
6.658851,0.267985
6.662759,0.292332
6.666667,0.313986
6.670574,0.334736
6.674482,0.357759
6.678390,0.385500
6.682298,0.417960
6.686206,0.452501
6.690113,0.485179
6.694021,0.512615
6.697929,0.533204
6.701837,0.547065
6.705744,0.555076
6.709652,0.557896
6.713560,0.555658
6.717468,0.548363
6.721376,0.536433
6.725283,0.520849
6.729191,0.502716
6.733099,0.482606
6.737007,0.460271
6.740914,0.434976
6.744822,0.406168
6.748730,0.373896
6.752638,0.338632
6.756546,0.300716
6.760453,0.260028
6.764361,0.216278
6.768269,0.169762
6.772177,0.121896
6.776084,0.075003
6.779992,0.031381
6.783900,-0.007771
6.787808,-0.042813
6.791716,-0.075212
6.795623,-0.106474
6.799531,-0.137179
6.803439,-0.166630
6.807347,-0.193213
6.811254,-0.215161
6.815162,-0.231351
6.819070,-0.241852
6.822978,-0.248001
6.826886,-0.251925
6.830793,-0.255647
6.834701,-0.260174
6.838609,-0.265124
6.842517,-0.269168
6.846424,-0.270998
6.850332,-0.270139
6.854240,-0.267031
6.858148,-0.262424
6.862055,-0.256734
6.865963,-0.250018
6.869871,-0.242615
6.873779,-0.235775
6.877687,-0.231481
6.881594,-0.231365
6.885502,-0.235461
6.889410,-0.241826
6.893318,-0.247476
6.897225,-0.250109
6.901133,-0.249510
6.905041,-0.247687
6.908949,-0.247598
6.912857,-0.251255
6.916764,-0.258409
6.920672,-0.266665
6.924580,-0.272948
6.928488,-0.275371
6.932395,-0.274278
6.936303,-0.271869
6.940211,-0.270796
6.944119,-0.272720
6.948027,-0.277656
6.951934,-0.284318
6.955842,-0.291030
6.959750,-0.296560
6.963658,-0.300446
6.967565,-0.302829
6.971473,-0.304178
6.975381,-0.305124
6.979289,-0.306326
6.983197,-0.308112
6.987104,-0.309997
6.991012,-0.310554
6.994920,-0.308041
6.998828,-0.301558
7.002735,-0.291915
7.006643,-0.281429
7.010551,-0.272593
7.014459,-0.266448
7.018367,-0.261846
7.022274,-0.256288
7.026182,-0.247913
7.030090,-0.237229
7.033998,-0.227216
7.037905,-0.221520
7.041813,-0.222011
7.045721,-0.227564
7.049629,-0.234988
7.053537,-0.241367
7.057444,-0.245932
7.061352,-0.250088
7.065260,-0.255688
7.069168,-0.263010
7.073075,-0.270037
7.076983,-0.273594
7.080891,-0.271534
7.084799,-0.264471
7.088707,-0.255928
7.092614,-0.250753
7.096522,-0.252601
7.100430,-0.261774
7.104338,-0.274576
7.108245,-0.284833
7.112153,-0.287144
7.116061,-0.280268
7.119969,-0.268312
7.123877,-0.258284
7.127784,-0.255006
7.131692,-0.256959
7.135600,-0.256794
7.139508,-0.247105
7.143415,-0.227465
7.147323,-0.206603
7.151231,-0.196602
7.155139,-0.202605
7.159047,-0.216509
7.162954,-0.221436
7.166862,-0.205163
7.170770,-0.171488
7.174678,-0.137105
7.178585,-0.111665
7.182493,-0.074247
7.186401,0.032002
7.190309,0.273416
7.194216,0.676080
7.198124,1.182904
7.202032,1.650939
7.205940,1.901590
7.209848,1.802791
7.213755,1.338465
7.217663,0.624224
7.221571,-0.141417
7.225479,-0.763397
7.229386,-1.126645
7.233294,-1.224666
7.237202,-1.133363
7.241110,-0.954715
7.245018,-0.766902
7.248925,-0.605137
7.252833,-0.472912
7.256741,-0.364917
7.260649,-0.281529
7.264556,-0.227657
7.268464,-0.203289
7.272372,-0.198022
7.276280,-0.195510
7.280188,-0.183636
7.284095,-0.161418
7.288003,-0.137262
7.291911,-0.120803
7.295819,-0.115341
7.299726,-0.116332
7.303634,-0.115903
7.307542,-0.108856
7.311450,-0.095460
7.315358,-0.079720
7.319265,-0.065434
7.323173,-0.053471
7.327081,-0.041977
7.330989,-0.028611
7.334896,-0.012576
7.338804,0.005114
7.342712,0.022963
7.346620,0.040467
7.350528,0.058485
7.354435,0.078379
7.358343,0.100876
7.362251,0.125610
7.366159,0.151566
7.370066,0.177911
7.373974,0.204485
7.377882,0.231665
7.381790,0.259793
7.385698,0.288687
7.389605,0.317601
7.393513,0.345608
7.397421,0.372019
7.401329,0.396470
7.405236,0.418673
7.409144,0.438108
7.413052,0.453959
7.416960,0.465310
7.420868,0.471425
7.424775,0.472015
7.428683,0.467461
7.432591,0.458947
7.436499,0.448282
7.440406,0.437262
7.444314,0.426737
7.448222,0.415936
7.452130,0.402580
7.456038,0.383871
7.459945,0.357890
7.463853,0.324610
7.467761,0.286003
7.471669,0.245187
7.475576,0.205130
7.479484,0.167563
7.483392,0.132599
7.487300,0.099136
7.491208,0.065766
7.495115,0.031703
7.499023,-0.002630
7.502931,-0.035554
7.506839,-0.064695
7.510746,-0.087983
7.514654,-0.104695
7.518562,-0.115951
7.522470,-0.124253
7.526377,-0.132146
7.530285,-0.140687
7.534193,-0.148693
7.538101,-0.153488
7.542009,-0.152894
7.545916,-0.147207
7.549824,-0.139657
7.553732,-0.134717
7.557640,-0.135232
7.561547,-0.140317
7.565455,-0.145658
7.569363,-0.146236
7.573271,-0.139727
7.577179,-0.128223
7.581086,-0.117018
7.584994,-0.111260
7.588902,-0.112826
7.592810,-0.119513
7.596717,-0.126921
7.600625,-0.131467
7.604533,-0.132391
7.608441,-0.131554
7.612349,-0.131536
7.616256,-0.133619
7.620164,-0.137106
7.624072,-0.140295
7.627980,-0.142207
7.631887,-0.143614
7.635795,-0.146551
7.639703,-0.152674
7.643611,-0.161767
7.647519,-0.171558
7.651426,-0.179029
7.655334,-0.182302
7.659242,-0.181736
7.663150,-0.179482
7.667057,-0.177842
7.670965,-0.177659
7.674873,-0.177895
7.678781,-0.176665
7.682689,-0.172916
7.686596,-0.167536
7.690504,-0.163080
7.694412,-0.162223
7.698320,-0.165973
7.702227,-0.172822
7.706135,-0.179451
7.710043,-0.182577
7.713951,-0.180705
7.717859,-0.174644
7.721766,-0.166537
7.725674,-0.158206
7.729582,-0.150047
7.733490,-0.141216
7.737397,-0.130803
7.741305,-0.119050
7.745213,-0.107731
7.749121,-0.099529
7.753029,-0.096896
7.756936,-0.101018
7.760844,-0.111282
7.764752,-0.125326
7.768660,-0.139682
7.772567,-0.150911
7.776475,-0.156966
7.780383,-0.158168
7.784291,-0.157113
7.788199,-0.157277
7.792106,-0.161013
7.796014,-0.168295
7.799922,-0.177214
7.803830,-0.185855
7.807737,-0.193936
7.811645,-0.202675
7.815553,-0.212936
7.819461,-0.223473
7.823369,-0.231245
7.827276,-0.233876
7.831184,-0.232072
7.835092,-0.229463
7.839000,-0.229476
7.842907,-0.231911
7.846815,-0.232711
7.850723,-0.227936
7.854631,-0.218700
7.858538,-0.212032
7.862446,-0.215484
7.866354,-0.229384
7.870262,-0.244176
7.874170,-0.247079
7.878077,-0.233590
7.881985,-0.212536
7.885893,-0.195986
7.889801,-0.177769
7.893708,-0.117642
7.897616,0.049686
7.901524,0.375925
7.905432,0.849585
7.909340,1.369107
7.913247,1.765328
7.917155,1.871273
7.921063,1.604939
7.924971,1.017502
7.928878,0.276556
7.932786,-0.408198
7.936694,-0.875449
7.940602,-1.069920
7.944510,-1.040960
7.948417,-0.892633
7.952325,-0.721730
7.956233,-0.579881
7.960141,-0.473405
7.964048,-0.388192
7.967956,-0.314870
7.971864,-0.257045
7.975772,-0.222837
7.979680,-0.212588
7.983587,-0.215195
7.987495,-0.215375
7.991403,-0.204303
7.995311,-0.184323
7.999218,-0.164645
8.003126,-0.152762
8.007034,-0.148995
8.010942,-0.147797
8.014850,-0.143378
8.018757,-0.134157
8.022665,-0.122615
8.026573,-0.111624
8.030481,-0.101193
8.034388,-0.088583
8.038296,-0.071310
8.042204,-0.049982
8.046112,-0.028255
8.050020,-0.009931
8.053927,0.004226
8.057835,0.017220
8.061743,0.033568
8.065651,0.055986
8.069558,0.083633
8.073466,0.113044
8.077374,0.140745
8.081282,0.165440
8.085190,0.188324
8.089097,0.211694
8.093005,0.237159
8.096913,0.264694
8.100821,0.292896
8.104728,0.319925
8.108636,0.344418
8.112544,0.365872
8.116452,0.384415
8.120360,0.400194
8.124267,0.412867
8.128175,0.421564
8.132083,0.425409
8.135991,0.424231
8.139898,0.418925
8.143806,0.411147
8.147714,0.402426
8.151622,0.393279
8.155530,0.382928
8.159437,0.369889
8.163345,0.353037
8.167253,0.332382
8.171161,0.308982
8.175068,0.284068
8.178976,0.258146
8.182884,0.230834
8.186792,0.201588
8.190699,0.170657
8.194607,0.139428
8.198515,0.109787
8.202423,0.082985
8.206331,0.058886
8.210238,0.036170
8.214146,0.013326
8.218054,-0.010287
8.221962,-0.033964
8.225869,-0.056015
8.229777,-0.074627
8.233685,-0.088730
8.237593,-0.098391
8.241501,-0.104659
8.245408,-0.109023
8.249316,-0.112790
8.253224,-0.116587
8.257132,-0.120158
8.261039,-0.122583
8.264947,-0.122960
8.268855,-0.121263
8.272763,-0.118801
8.276671,-0.117836
8.280578,-0.120416
8.284486,-0.127147
8.288394,-0.136724
8.292302,-0.146554
8.296209,-0.154106
8.300117,-0.158153
8.304025,-0.159234
8.307933,-0.159177
8.311841,-0.160070
8.315748,-0.163304
8.319656,-0.169131
8.323564,-0.176806
8.327472,-0.185140
8.331379,-0.193125
8.335287,-0.200412
8.339195,-0.207422
8.343103,-0.215033
8.347011,-0.223986
8.350918,-0.234351
8.354826,-0.245371
8.358734,-0.255759
8.362642,-0.264240
8.366549,-0.270069
8.370457,-0.273309
8.374365,-0.274795
8.378273,-0.275805
8.382181,-0.277521
8.386088,-0.280479
8.389996,-0.284251
8.393904,-0.287613
8.397812,-0.289206
8.401719,-0.288361
8.405627,-0.285557
8.409535,-0.282179
8.413443,-0.279703
8.417351,-0.278771
8.421258,-0.278714
8.425166,-0.277825
8.429074,-0.274264
8.432982,-0.267121
8.436889,-0.257048
8.440797,-0.246111
8.444705,-0.236915
8.448613,-0.231503
8.452521,-0.230660
8.456428,-0.233922
8.460336,-0.240056
8.464244,-0.247493
8.468152,-0.254447
8.472059,-0.259020
8.475967,-0.259759
8.479875,-0.256601
8.483783,-0.251469
8.487691,-0.247683
8.491598,-0.248216
8.495506,-0.253866
8.499414,-0.262697
8.503322,-0.271272
8.507229,-0.276793
8.511137,-0.278545
8.515045,-0.277672
8.518953,-0.275726
8.522860,-0.273527
8.526768,-0.271365
8.530676,-0.270070
8.534584,-0.271317
8.538492,-0.276143
8.542399,-0.282706
8.546307,-0.285860
8.550215,-0.280270
8.554123,-0.265512
8.558030,-0.248717
8.561938,-0.241049
8.565846,-0.249157
8.569754,-0.268166
8.573662,-0.283286
8.577569,-0.280784
8.581477,-0.259927
8.585385,-0.233745
8.589293,-0.213356
8.593200,-0.184944
8.597108,-0.099331
8.601016,0.109519
8.604924,0.479609
8.608832,0.974774
8.612739,1.471100
8.616647,1.794803
8.620555,1.798946
8.624463,1.438719
8.628370,0.801269
8.632278,0.070657
8.636186,-0.553563
8.640094,-0.939199
8.644002,-1.062510
8.647909,-0.991975
8.651817,-0.833301
8.655725,-0.672692
8.659633,-0.548675
8.663540,-0.459071
8.667448,-0.387123
8.671356,-0.323788
8.675264,-0.272955
8.679172,-0.242386
8.683079,-0.232775
8.686987,-0.235150
8.690895,-0.237305
8.694803,-0.232187
8.698710,-0.220896
8.702618,-0.208851
8.706526,-0.199613
8.710434,-0.191955
8.714342,-0.181987
8.718249,-0.167559
8.722157,-0.150614
8.726065,-0.135500
8.729973,-0.124964
8.733880,-0.117404
8.737788,-0.107726
8.741696,-0.091074
8.745604,-0.066477
8.749512,-0.037639
8.753419,-0.010499
8.757327,0.010529
8.761235,0.025006
8.765143,0.036229
8.769050,0.048893
8.772958,0.066409
8.776866,0.089452
8.780774,0.116268
8.784682,0.144146
8.788589,0.171007
8.792497,0.196283
8.796405,0.220813
8.800313,0.245985
8.804220,0.272649
8.808128,0.300346
8.812036,0.327185
8.815944,0.350439
8.819852,0.367620
8.823759,0.377559
8.827667,0.380955
8.831575,0.379990
8.835483,0.377136
8.839390,0.373733
8.843298,0.369241
8.847206,0.361725
8.851114,0.349391
8.855021,0.332159
8.858929,0.312078
8.862837,0.292027
8.866745,0.273441
8.870653,0.254691
8.874560,0.231565
8.878468,0.199902
8.882376,0.158682
8.886284,0.111306
8.890191,0.063906
8.894099,0.021708
8.898007,-0.013993
8.901915,-0.046048
8.905823,-0.078717
8.909730,-0.114044
8.913638,-0.150083
8.917546,-0.182278
8.921454,-0.206916
8.925361,-0.223963
8.929269,-0.237063
8.933177,-0.250716
8.937085,-0.266780
8.940993,-0.282991
8.944900,-0.294644
8.948808,-0.298208
8.952716,-0.294174
8.956624,-0.287032
8.960531,-0.282377
8.964439,-0.283288
8.968347,-0.288553
8.972255,-0.293899
8.976163,-0.295168
8.980070,-0.291140
8.983978,-0.284113
8.987886,-0.278107
8.991794,-0.276089
8.995701,-0.278099
8.999609,-0.281390
9.003517,-0.282333
9.007425,-0.278848
9.011333,-0.271830
9.015240,-0.264706
9.019148,-0.261380
9.023056,-0.263845
9.026964,-0.270975
9.030871,-0.279275
9.034779,-0.285119
9.038687,-0.287022
9.042595,-0.286438
9.046503,-0.286535
9.050410,-0.289819
9.054318,-0.296304
9.058226,-0.303566
9.062134,-0.308606
9.066041,-0.310130
9.069949,-0.309514
9.073857,-0.309740
9.077765,-0.313036
9.081673,-0.319027
9.085580,-0.324796
9.089488,-0.326921
9.093396,-0.323972
9.097304,-0.317600
9.101211,-0.311356
9.105119,-0.308152
9.109027,-0.308291
9.112935,-0.309534
9.116843,-0.309001
9.120750,-0.305241
9.124658,-0.298826
9.128566,-0.291159
9.132474,-0.282776
9.136381,-0.272770
9.140289,-0.259890
9.144197,-0.244386
9.148105,-0.228979
9.152013,-0.218005
9.155920,-0.215130
9.159828,-0.221158
9.163736,-0.233416
9.167644,-0.247142
9.171551,-0.257953
9.175459,-0.263840
9.179367,-0.265567
9.183275,-0.265531
9.187182,-0.266087
9.191090,-0.268459
9.194998,-0.272684
9.198906,-0.278226
9.202814,-0.284563
9.206721,-0.291279
9.210629,-0.297691
9.214537,-0.302478
9.218445,-0.303936
9.222352,-0.301097
9.226260,-0.295141
9.230168,-0.289745
9.234076,-0.289312
9.237984,-0.295578
9.241891,-0.304940
9.245799,-0.309318
9.249707,-0.301226
9.253615,-0.280192
9.257522,-0.255324
9.261430,-0.240521
9.265338,-0.244300
9.269246,-0.261648
9.273154,-0.275470
9.277061,-0.268581
9.280969,-0.237702
9.284877,-0.196673
9.288785,-0.162203
9.292692,-0.129564
9.296600,-0.057452
9.300508,0.119881
9.304416,0.451768
9.308324,0.922587
9.312231,1.428636
9.316139,1.803643
9.320047,1.887803
9.323955,1.605894
9.327862,1.010273
9.331770,0.262580
9.335678,-0.436708
9.339586,-0.931877
9.343494,-1.164584
9.347401,-1.172937
9.351309,-1.047414
9.355217,-0.876235
9.359125,-0.711730
9.363032,-0.569106
9.366940,-0.446228
9.370848,-0.343136
9.374756,-0.267156
9.378664,-0.224763
9.382571,-0.211897
9.386479,-0.213198
9.390387,-0.210954
9.394295,-0.195911
9.398202,-0.171221
9.402110,-0.147263
9.406018,-0.132415
9.409926,-0.127139
9.413834,-0.125036
9.417741,-0.118680
9.421649,-0.104977
9.425557,-0.086265
9.429465,-0.067347
9.433372,-0.051614
9.437280,-0.039276
9.441188,-0.028336
9.445096,-0.016693
9.449004,-0.003366
9.452911,0.011824
9.456819,0.029232
9.460727,0.049788
9.464635,0.074380
9.468542,0.102871
9.472450,0.133768
9.476358,0.164938
9.480266,0.194830
9.484174,0.223263
9.488081,0.251256
9.491989,0.280145
9.495897,0.310683
9.499805,0.342672
9.503712,0.375159
9.507620,0.406891
9.511528,0.436638
9.515436,0.463230
9.519343,0.485462
9.523251,0.502172
9.527159,0.512642
9.531067,0.517102
9.534975,0.516896
9.538882,0.514039
9.542790,0.510262
9.546698,0.506070
9.550606,0.500363
9.554513,0.490891
9.558421,0.475361
9.562329,0.452655
9.566237,0.423474
9.570145,0.390025
9.574052,0.354860
9.577960,0.319583
9.581868,0.284264
9.585776,0.247953
9.589683,0.209896
9.593591,0.170488
9.597499,0.131208
9.601407,0.093650
9.605315,0.058501
9.609222,0.025407
9.613130,-0.006163
9.617038,-0.035817
9.620946,-0.061962
9.624853,-0.082721
9.628761,-0.097404
9.632669,-0.107346
9.636577,-0.115358
9.640485,-0.124024
9.644392,-0.134038
9.648300,-0.143809
9.652208,-0.150676
9.656116,-0.152881
9.660023,-0.150835
9.663931,-0.146737
9.667839,-0.142839
9.671747,-0.139760
9.675655,-0.136182
9.679562,-0.130190
9.683470,-0.121181
9.687378,-0.110809
9.691286,-0.102180
9.695193,-0.097843
9.699101,-0.097950
9.703009,-0.099883
9.706917,-0.099685
9.710825,-0.094462
9.714732,-0.084277
9.718640,-0.072260
9.722548,-0.062830
9.726456,-0.059174
9.730363,-0.061649
9.734271,-0.068089
9.738179,-0.075582
9.742087,-0.082312
9.745995,-0.088169
9.749902,-0.093963
9.753810,-0.100117
9.757718,-0.106029
9.761626,-0.110561
9.765533,-0.113122
9.769441,-0.114344
9.773349,-0.115713
9.777257,-0.118417
9.781165,-0.122350
9.785072,-0.126099
9.788980,-0.127992
9.792888,-0.127432
9.796796,-0.125478
9.800703,-0.124138
9.804611,-0.124779
9.808519,-0.126798
9.812427,-0.127657
9.816335,-0.124445
9.820242,-0.115993
9.824150,-0.104007
9.828058,-0.092237
9.831966,-0.084096
9.835873,-0.080299
9.839781,-0.078222
9.843689,-0.073530
9.847597,-0.063063
9.851504,-0.047054
9.855412,-0.029207
9.859320,-0.014695
9.863228,-0.007491
9.867136,-0.008684
9.871043,-0.016458
9.874951,-0.027318
9.878859,-0.037672
9.882767,-0.045157
9.886674,-0.049379
9.890582,-0.051864
9.894490,-0.055064
9.898398,-0.060769
9.902306,-0.068865
9.906213,-0.077475
9.910121,-0.084572
9.914029,-0.089877
9.917937,-0.095346
9.921844,-0.103534
9.925752,-0.114984
9.929660,-0.126943
9.933568,-0.134877
9.937476,-0.135918
9.941383,-0.131400
9.945291,-0.126138
9.949199,-0.124715
9.953107,-0.127821
9.957014,-0.131820
9.960922,-0.132074
9.964830,-0.127209
9.968738,-0.120535
9.972646,-0.117248
9.976553,-0.119739
9.980461,-0.124991
9.984369,-0.126148
9.988277,-0.116749
9.992184,-0.094244
9.996092,-0.060640
10.000000,-0.020917
