time,ecg
0.000000,-0.208842
0.003908,-0.208665
0.007816,-0.210046
0.011723,-0.212269
0.015631,-0.211952
0.019539,-0.205014
0.023447,-0.189626
0.027354,-0.167949
0.031262,-0.145281
0.035170,-0.127154
0.039078,-0.116324
0.042986,-0.111584
0.046893,-0.108973
0.050801,-0.104479
0.054709,-0.096554
0.058617,-0.087086
0.062524,-0.080412
0.066432,-0.081015
0.070340,-0.091104
0.074248,-0.109258
0.078156,-0.130806
0.082063,-0.149812
0.085971,-0.161755
0.089879,-0.165509
0.093787,-0.163432
0.097694,-0.159374
0.101602,-0.155788
0.105510,-0.151978
0.109418,-0.144899
0.113326,-0.132102
0.117233,-0.114634
0.121141,-0.097544
0.125049,-0.087275
0.128957,-0.087636
0.132864,-0.097243
0.136772,-0.110444
0.140680,-0.121191
0.144588,-0.127015
0.148496,-0.130081
0.152403,-0.134505
0.156311,-0.142067
0.160219,-0.149807
0.164127,-0.151510
0.168034,-0.142029
0.171942,-0.121144
0.175850,-0.094091
0.179758,-0.068596
0.183665,-0.050931
0.187573,-0.043820
0.191481,-0.046823
0.195389,-0.057021
0.199297,-0.067454
0.203204,-0.063568
0.207112,-0.021671
0.211020,0.085683
0.214928,0.276462
0.218835,0.543915
0.222743,0.849561
0.226651,1.132152
0.230559,1.331095
0.234467,1.412460
0.238374,1.381899
0.242282,1.275640
0.246190,1.134583
0.250098,0.978010
0.254005,0.794191
0.257913,0.554038
0.261821,0.238570
0.265729,-0.138249
0.269637,-0.526555
0.273544,-0.859676
0.277452,-1.083546
0.281360,-1.179142
0.285268,-1.166303
0.289175,-1.089400
0.293083,-0.995379
0.296991,-0.916595
0.300899,-0.864964
0.304807,-0.835889
0.308714,-0.816001
0.312622,-0.789826
0.316530,-0.744246
0.320438,-0.671963
0.324345,-0.574441
0.328253,-0.462760
0.332161,-0.354383
0.336069,-0.266138
0.339977,-0.206944
0.343884,-0.174775
0.347792,-0.159890
0.351700,-0.152080
0.355608,-0.146984
0.359515,-0.147393
0.363423,-0.159219
0.367331,-0.185521
0.371239,-0.222958
0.375147,-0.262885
0.379054,-0.295815
0.382962,-0.315893
0.386870,-0.322589
0.390778,-0.319158
0.394685,-0.309638
0.398593,-0.296665
0.402501,-0.281295
0.406409,-0.264305
0.410317,-0.247433
0.414224,-0.233227
0.418132,-0.223352
0.422040,-0.216555
0.425948,-0.208053
0.429855,-0.191377
0.433763,-0.162102
0.437671,-0.121328
0.441579,-0.076571
0.445487,-0.039043
0.449394,-0.018521
0.453302,-0.018604
0.457210,-0.035103
0.461118,-0.058407
0.465025,-0.078355
0.468933,-0.088694
0.472841,-0.088802
0.476749,-0.082255
0.480657,-0.073795
0.484564,-0.066859
0.488472,-0.062865
0.492380,-0.061961
0.496288,-0.064070
0.500195,-0.069349
0.504103,-0.077971
0.508011,-0.089770
0.511919,-0.104193
0.515826,-0.120598
0.519734,-0.138585
0.523642,-0.158071
0.527550,-0.179062
0.531458,-0.201358
0.535365,-0.224408
0.539273,-0.247443
0.543181,-0.269736
0.547089,-0.290685
0.550996,-0.309531
0.554904,-0.324925
0.558812,-0.334867
0.562720,-0.337370
0.566628,-0.331542
0.570535,-0.318261
0.574443,-0.299830
0.578351,-0.278841
0.582259,-0.257131
0.586166,-0.235541
0.590074,-0.214440
0.593982,-0.194369
0.597890,-0.176234
0.601798,-0.160966
0.605705,-0.148993
0.609613,-0.139957
0.613521,-0.132881
0.617429,-0.126644
0.621336,-0.120426
0.625244,-0.113814
0.629152,-0.106601
0.633060,-0.098632
0.636968,-0.089954
0.640875,-0.081149
0.644783,-0.073343
0.648691,-0.067586
0.652599,-0.063900
0.656506,-0.060832
0.660414,-0.056134
0.664322,-0.048364
0.668230,-0.038316
0.672138,-0.029043
0.676045,-0.024189
0.679953,-0.025575
0.683861,-0.031769
0.687769,-0.038764
0.691676,-0.042494
0.695584,-0.041495
0.699492,-0.037879
0.703400,-0.035876
0.707308,-0.038942
0.711215,-0.047429
0.715123,-0.058442
0.719031,-0.067891
0.722939,-0.073236
0.726846,-0.075021
0.730754,-0.076287
0.734662,-0.080414
0.738570,-0.088980
0.742478,-0.100939
0.746385,-0.113381
0.750293,-0.123089
0.754201,-0.127867
0.758109,-0.127120
0.762016,-0.121837
0.765924,-0.114326
0.769832,-0.107701
0.773740,-0.104938
0.777648,-0.107499
0.781555,-0.114174
0.785463,-0.121113
0.789371,-0.123449
0.793279,-0.117845
0.797186,-0.104462
0.801094,-0.087050
0.805002,-0.071012
0.808910,-0.060605
0.812818,-0.056973
0.816725,-0.058191
0.820633,-0.061117
0.824541,-0.063612
0.828449,-0.065458
0.832356,-0.067420
0.836264,-0.069446
0.840172,-0.069758
0.844080,-0.065772
0.847987,-0.056140
0.851895,-0.042205
0.855803,-0.027561
0.859711,-0.015994
0.863619,-0.009365
0.867526,-0.007007
0.871434,-0.006922
0.875342,-0.007678
0.879250,-0.009435
0.883157,-0.013435
0.887065,-0.020548
0.890973,-0.030226
0.894881,-0.040799
0.898789,-0.050833
0.902696,-0.060359
0.906604,-0.070840
0.910512,-0.083786
0.914420,-0.099074
0.918327,-0.114398
0.922235,-0.126427
0.926143,-0.132935
0.930051,-0.134308
0.933959,-0.133282
0.937866,-0.133156
0.941774,-0.135885
0.945682,-0.141431
0.949590,-0.148615
0.953497,-0.156521
0.957405,-0.165246
0.961313,-0.175438
0.965221,-0.187107
0.969129,-0.198731
0.973036,-0.207492
0.976944,-0.210702
0.980852,-0.207560
0.984760,-0.199970
0.988667,-0.191608
0.992575,-0.185638
0.996483,-0.182564
1.000391,-0.179898
1.004299,-0.174062
1.008206,-0.163072
1.012114,-0.147204
1.016022,-0.125792
1.019930,-0.091356
1.023837,-0.025845
1.027745,0.095557
1.031653,0.291479
1.035561,0.557853
1.039469,0.858812
1.043376,1.134452
1.047284,1.325426
1.051192,1.402160
1.055100,1.380264
1.059007,1.309642
1.062915,1.240944
1.066823,1.189218
1.070731,1.119107
1.074639,0.963890
1.078546,0.668914
1.082454,0.233094
1.086362,-0.278034
1.090270,-0.757006
1.094177,-1.102878
1.098085,-1.265371
1.101993,-1.260711
1.105901,-1.153653
1.109809,-1.020178
1.113716,-0.913905
1.117624,-0.852484
1.121532,-0.825019
1.125440,-0.809385
1.129347,-0.786512
1.133255,-0.745667
1.137163,-0.683192
1.141071,-0.600436
1.144979,-0.503821
1.148886,-0.405336
1.152794,-0.320097
1.156702,-0.260299
1.160610,-0.228976
1.164517,-0.218310
1.168425,-0.214332
1.172333,-0.205110
1.176241,-0.186877
1.180148,-0.164237
1.184056,-0.145021
1.187964,-0.133970
1.191872,-0.129748
1.195780,-0.126838
1.199687,-0.120237
1.203595,-0.109166
1.207503,-0.097184
1.211411,-0.089040
1.215318,-0.086877
1.219226,-0.088580
1.223134,-0.089260
1.227042,-0.084587
1.230950,-0.073571
1.234857,-0.058995
1.238765,-0.045457
1.242673,-0.036514
1.246581,-0.032768
1.250488,-0.031919
1.254396,-0.030529
1.258304,-0.026242
1.262212,-0.019112
1.266120,-0.011296
1.270027,-0.005453
1.273935,-0.002963
1.277843,-0.003126
1.281751,-0.003818
1.285658,-0.003120
1.289566,-0.000872
1.293474,0.000842
1.297382,-0.001394
1.301290,-0.010505
1.305197,-0.027212
1.309105,-0.049389
1.313013,-0.072849
1.316921,-0.093192
1.320828,-0.107853
1.324736,-0.117351
1.328644,-0.125050
1.332552,-0.135407
1.336460,-0.151556
1.340367,-0.173597
1.344275,-0.198684
1.348183,-0.222857
1.352091,-0.243386
1.355998,-0.259926
1.359906,-0.273723
1.363814,-0.285612
1.367722,-0.294573
1.371630,-0.298133
1.375537,-0.294315
1.379445,-0.283454
1.383353,-0.268229
1.387261,-0.251696
1.391168,-0.234833
1.395076,-0.215589
1.398984,-0.190336
1.402892,-0.156799
1.406800,-0.116372
1.410707,-0.074126
1.414615,-0.036406
1.418523,-0.007676
1.422431,0.011209
1.426338,0.022188
1.430246,0.027472
1.434154,0.027381
1.438062,0.020282
1.441970,0.004698
1.445877,-0.018044
1.449785,-0.042793
1.453693,-0.062326
1.457601,-0.070987
1.461508,-0.067858
1.465416,-0.057178
1.469324,-0.045570
1.473232,-0.037902
1.477140,-0.034636
1.481047,-0.032456
1.484955,-0.027511
1.488863,-0.018779
1.492771,-0.009074
1.496678,-0.003096
1.500586,-0.004113
1.504494,-0.011720
1.508402,-0.022233
1.512309,-0.031332
1.516217,-0.036968
1.520125,-0.040487
1.524033,-0.045220
1.527941,-0.053653
1.531848,-0.065212
1.535756,-0.076205
1.539664,-0.081923
1.543572,-0.079468
1.547479,-0.069417
1.551387,-0.055331
1.555295,-0.041581
1.559203,-0.031041
1.563111,-0.024050
1.567018,-0.019049
1.570926,-0.014147
1.574834,-0.008493
1.578742,-0.002688
1.582649,0.001802
1.586557,0.003656
1.590465,0.002442
1.594373,-0.001285
1.598281,-0.006458
1.602188,-0.012106
1.606096,-0.017683
1.610004,-0.023008
1.613912,-0.028015
1.617819,-0.032680
1.621727,-0.037181
1.625635,-0.042073
1.629543,-0.048120
1.633451,-0.055729
1.637358,-0.064413
1.641266,-0.072801
1.645174,-0.079367
1.649082,-0.083343
1.652989,-0.085075
1.656897,-0.085470
1.660805,-0.084949
1.664713,-0.082797
1.668621,-0.077512
1.672528,-0.068000
1.676436,-0.054815
1.680344,-0.040537
1.684252,-0.028915
1.688159,-0.023127
1.692067,-0.024119
1.695975,-0.030030
1.699883,-0.037138
1.703791,-0.041881
1.707698,-0.042717
1.711606,-0.040692
1.715514,-0.038425
1.719422,-0.038347
1.723329,-0.041393
1.727237,-0.046867
1.731145,-0.053239
1.735053,-0.059120
1.738961,-0.063800
1.742868,-0.067242
1.746776,-0.069777
1.750684,-0.071744
1.754592,-0.073239
1.758499,-0.073989
1.762407,-0.073439
1.766315,-0.071096
1.770223,-0.067034
1.774131,-0.062209
1.778038,-0.058216
1.781946,-0.056427
1.785854,-0.056954
1.789762,-0.058273
1.793669,-0.058052
1.797577,-0.054821
1.801485,-0.049160
1.805393,-0.043198
1.809301,-0.038649
1.813208,-0.035156
1.817116,-0.030723
1.821024,-0.023956
1.824932,-0.015348
1.828839,-0.004680
1.832747,0.015152
1.836655,0.062980
1.840563,0.166306
1.844470,0.347831
1.848378,0.607279
1.852286,0.910710
1.856194,1.198068
1.860102,1.409095
1.864009,1.514146
1.867917,1.529724
1.871825,1.505580
1.875733,1.488138
1.879640,1.482535
1.883548,1.439606
1.887456,1.280134
1.891364,0.944590
1.895272,0.438469
1.899179,-0.155874
1.903087,-0.710151
1.906995,-1.106896
1.910903,-1.289833
1.914810,-1.280761
1.918718,-1.157248
1.922626,-1.008252
1.926534,-0.894606
1.930442,-0.833433
1.934349,-0.807871
1.938257,-0.789013
1.942165,-0.754248
1.946073,-0.694051
1.949980,-0.609446
1.953888,-0.507150
1.957796,-0.397042
1.961704,-0.291505
1.965612,-0.203633
1.969519,-0.143058
1.973427,-0.111635
1.977335,-0.102548
1.981243,-0.104159
1.985150,-0.106247
1.989058,-0.104445
1.992966,-0.100248
1.996874,-0.097355
2.000782,-0.097569
2.004689,-0.099237
2.008597,-0.098867
2.012505,-0.094133
2.016413,-0.085708
2.020320,-0.076617
2.024228,-0.069881
2.028136,-0.066423
2.032044,-0.064738
2.035952,-0.062299
2.039859,-0.057391
2.043767,-0.050077
2.047675,-0.041932
2.051583,-0.035114
2.055490,-0.031578
2.059398,-0.032734
2.063306,-0.039274
2.067214,-0.050881
2.071122,-0.065966
2.075029,-0.082000
2.078937,-0.096735
2.082845,-0.109754
2.086753,-0.123133
2.090660,-0.140213
2.094568,-0.162773
2.098476,-0.188284
2.102384,-0.209368
2.106292,-0.216440
2.110199,-0.202461
2.114107,-0.167187
2.118015,-0.118310
2.121923,-0.068612
2.125830,-0.030568
2.129738,-0.011314
2.133646,-0.010587
2.137554,-0.022393
2.141462,-0.039013
2.145369,-0.054801
2.149277,-0.067845
2.153185,-0.079156
2.157093,-0.090657
2.161000,-0.103563
2.164908,-0.118032
2.168816,-0.133729
2.172724,-0.150380
2.176631,-0.167638
2.180539,-0.184410
2.184447,-0.198438
2.188355,-0.206779
2.192263,-0.207064
2.196170,-0.198725
2.200078,-0.183304
2.203986,-0.163695
2.207894,-0.142871
2.211801,-0.122882
2.215709,-0.104552
2.219617,-0.087828
2.223525,-0.072373
2.227433,-0.058006
2.231340,-0.044820
2.235248,-0.033044
2.239156,-0.022841
2.243064,-0.014164
2.246971,-0.006742
2.250879,-0.000243
2.254787,0.005474
2.258695,0.010237
2.262603,0.013732
2.266510,0.015876
2.270418,0.017064
2.274326,0.018056
2.278234,0.019574
2.282141,0.021893
2.286049,0.024672
2.289957,0.027113
2.293865,0.028398
2.297773,0.028190
2.301680,0.026896
2.305588,0.025414
2.309496,0.024475
2.313404,0.024020
2.317311,0.023142
2.321219,0.020697
2.325127,0.016183
2.329035,0.010221
2.332943,0.004249
2.336850,-0.000372
2.340758,-0.003176
2.344666,-0.004764
2.348574,-0.006205
2.352481,-0.008151
2.356389,-0.010367
2.360297,-0.012110
2.364205,-0.013095
2.368113,-0.014215
2.372020,-0.017184
2.375928,-0.023111
2.379836,-0.031014
2.383744,-0.037664
2.387651,-0.039243
2.391559,-0.033897
2.395467,-0.023323
2.399375,-0.012065
2.403283,-0.004823
2.407190,-0.003615
2.411098,-0.006795
2.415006,-0.010516
2.418914,-0.011430
2.422821,-0.008607
2.426729,-0.003465
2.430637,0.001852
2.434545,0.006125
2.438453,0.009485
2.442360,0.012617
2.446268,0.015748
2.450176,0.018474
2.454084,0.020519
2.457991,0.022605
2.461899,0.026478
2.465807,0.033904
2.469715,0.045413
2.473623,0.059853
2.477530,0.075213
2.481438,0.090124
2.485346,0.104796
2.489254,0.120481
2.493161,0.137734
2.497069,0.154821
2.500977,0.167679
2.504885,0.171750
2.508792,0.164560
2.512700,0.147284
2.516608,0.124211
2.520516,0.100476
2.524424,0.079569
2.528331,0.062153
2.532239,0.046703
2.536147,0.031276
2.540055,0.015129
2.543962,-0.000825
2.547870,-0.014811
2.551778,-0.025524
2.555686,-0.032976
2.559594,-0.038308
2.563501,-0.042838
2.567409,-0.047140
2.571317,-0.050814
2.575225,-0.053013
2.579132,-0.053225
2.583040,-0.051752
2.586948,-0.049588
2.590856,-0.047762
2.594764,-0.046538
2.598671,-0.044976
2.602579,-0.041288
2.606487,-0.033967
2.610395,-0.023110
2.614302,-0.010978
2.618210,-0.001104
2.622118,0.003835
2.626026,0.004110
2.629934,0.003292
2.633841,0.006197
2.637749,0.015812
2.641657,0.032186
2.645565,0.055478
2.649472,0.091976
2.653380,0.158072
2.657288,0.276586
2.661196,0.464119
2.665104,0.715417
2.669011,0.995607
2.672919,1.248781
2.676827,1.421604
2.680735,1.489299
2.684642,1.467055
2.688550,1.397366
2.692458,1.319351
2.696366,1.239377
2.700274,1.123283
2.704181,0.917459
2.708089,0.587056
2.711997,0.147488
2.715905,-0.331375
2.719812,-0.752150
2.723720,-1.032749
2.727628,-1.140765
2.731536,-1.101598
2.735444,-0.978997
2.739351,-0.842032
2.743259,-0.737340
2.747167,-0.678689
2.751075,-0.653801
2.754982,-0.639484
2.758890,-0.615028
2.762798,-0.568873
2.766706,-0.499427
2.770614,-0.413260
2.774521,-0.322510
2.778429,-0.241311
2.782337,-0.180993
2.786245,-0.145572
2.790152,-0.130218
2.794060,-0.124210
2.797968,-0.116958
2.801876,-0.103400
2.805784,-0.085452
2.809691,-0.068928
2.813599,-0.058467
2.817507,-0.054153
2.821415,-0.051935
2.825322,-0.047058
2.829230,-0.037579
2.833138,-0.025370
2.837046,-0.014210
2.840953,-0.006816
2.844861,-0.003227
2.848769,-0.001470
2.852677,0.000546
2.856585,0.003738
2.860492,0.008079
2.864400,0.013639
2.868308,0.021032
2.872216,0.030636
2.876123,0.041298
2.880031,0.049944
2.883939,0.052840
2.887847,0.047804
2.891755,0.035725
2.895662,0.020129
2.899570,0.005106
2.903478,-0.006852
2.907386,-0.015523
2.911293,-0.021978
2.915201,-0.027118
2.919109,-0.031145
2.923017,-0.034284
2.926925,-0.037803
2.930832,-0.044103
2.934740,-0.055490
2.938648,-0.072515
2.942556,-0.093267
2.946463,-0.114406
2.950371,-0.133349
2.954279,-0.149991
2.958187,-0.166564
2.962095,-0.185641
2.966002,-0.207773
2.969910,-0.230619
2.973818,-0.250315
2.977726,-0.264136
2.981633,-0.272441
2.985541,-0.278369
2.989449,-0.285402
2.993357,-0.294538
2.997265,-0.303193
3.001172,-0.306723
3.005080,-0.301482
3.008988,-0.287206
3.012896,-0.267023
3.016803,-0.245191
3.020711,-0.224295
3.024619,-0.203960
3.028527,-0.181810
3.032435,-0.155719
3.036342,-0.125460
3.040250,-0.092609
3.044158,-0.059074
3.048066,-0.025779
3.051973,0.007280
3.055881,0.039757
3.059789,0.069830
3.063697,0.094471
3.067605,0.111095
3.071512,0.119277
3.075420,0.121140
3.079328,0.120118
3.083236,0.119058
3.087143,0.119005
3.091051,0.119291
3.094959,0.118562
3.098867,0.115838
3.102775,0.111000
3.106682,0.104706
3.110590,0.098104
3.114498,0.092615
3.118406,0.089676
3.122313,0.090266
3.126221,0.094278
3.130129,0.100153
3.134037,0.105132
3.137945,0.106169
3.141852,0.101140
3.145760,0.089842
3.149668,0.074325
3.153576,0.058320
3.157483,0.045810
3.161391,0.039197
3.165299,0.037863
3.169207,0.038051
3.173114,0.034478
3.177022,0.023120
3.180930,0.003607
3.184838,-0.020431
3.188746,-0.043529
3.192653,-0.061713
3.196561,-0.074564
3.200469,-0.084353
3.204377,-0.092797
3.208284,-0.097959
3.212192,-0.094019
3.216100,-0.074670
3.220008,-0.038086
3.223916,0.010113
3.227823,0.058446
3.231731,0.095132
3.235639,0.114160
3.239547,0.117896
3.243454,0.114627
3.247362,0.112942
3.251270,0.116819
3.255178,0.124452
3.259086,0.130975
3.262993,0.132620
3.266901,0.129261
3.270809,0.123892
3.274717,0.119955
3.278624,0.118816
3.282532,0.119200
3.286440,0.118707
3.290348,0.115926
3.294256,0.111446
3.298163,0.107112
3.302071,0.104342
3.305979,0.102936
3.309887,0.101279
3.313794,0.097659
3.317702,0.091606
3.321610,0.084196
3.325518,0.077165
3.329426,0.071543
3.333333,0.066881
3.337241,0.061637
3.341149,0.054439
3.345057,0.045325
3.348964,0.036024
3.352872,0.028990
3.356780,0.025739
3.360688,0.025578
3.364596,0.025682
3.368503,0.022633
3.372411,0.014537
3.376319,0.002368
3.380227,-0.010430
3.384134,-0.019871
3.388042,-0.023625
3.391950,-0.022069
3.395858,-0.017637
3.399766,-0.013124
3.403673,-0.010195
3.407581,-0.008956
3.411489,-0.008536
3.415397,-0.007954
3.419304,-0.006661
3.423212,-0.004707
3.427120,-0.002779
3.431028,-0.002082
3.434936,-0.003765
3.438843,-0.007901
3.442751,-0.012801
3.446659,-0.015629
3.450567,-0.014173
3.454474,-0.007898
3.458382,0.004033
3.462290,0.027868
3.466198,0.079753
3.470106,0.183786
3.474013,0.360661
3.477921,0.611077
3.481829,0.904767
3.485737,1.185955
3.489644,1.396984
3.493552,1.508431
3.497460,1.536052
3.501368,1.530011
3.505275,1.539048
3.509183,1.570659
3.513091,1.574605
3.516999,1.464710
3.520907,1.169704
3.524814,0.683447
3.528722,0.082851
3.532630,-0.499530
3.536538,-0.933759
3.540445,-1.148880
3.544353,-1.157060
3.548261,-1.035749
3.552169,-0.882395
3.556077,-0.769160
3.559984,-0.720171
3.563892,-0.717083
3.567800,-0.722376
3.571708,-0.703488
3.575615,-0.645924
3.579523,-0.553471
3.583431,-0.441010
3.587339,-0.326490
3.591247,-0.225326
3.595154,-0.147182
3.599062,-0.094314
3.602970,-0.061706
3.606878,-0.039749
3.610785,-0.018970
3.614693,0.005512
3.618601,0.032578
3.622509,0.057562
3.626417,0.076611
3.630324,0.089593
3.634232,0.099528
3.638140,0.109365
3.642048,0.118984
3.645955,0.124885
3.649863,0.122715
3.653771,0.110641
3.657679,0.091116
3.661587,0.069925
3.665494,0.053281
3.669402,0.044854
3.673310,0.044406
3.677218,0.048589
3.681125,0.053133
3.685033,0.055078
3.688941,0.053936
3.692849,0.051397
3.696757,0.049968
3.700664,0.051360
3.704572,0.055563
3.708480,0.061107
3.712388,0.066217
3.716295,0.069911
3.720203,0.072176
3.724111,0.073185
3.728019,0.072429
3.731927,0.068669
3.735834,0.060835
3.739742,0.049047
3.743650,0.034735
3.747558,0.019584
3.751465,0.004151
3.755373,-0.012576
3.759281,-0.032081
3.763189,-0.054449
3.767097,-0.077394
3.771004,-0.097382
3.774912,-0.112341
3.778820,-0.123854
3.782728,-0.136761
3.786635,-0.155928
3.790543,-0.182260
3.794451,-0.211025
3.798359,-0.234081
3.802267,-0.244745
3.806174,-0.241918
3.810082,-0.230451
3.813990,-0.217461
3.817898,-0.207281
3.821805,-0.198671
3.825713,-0.186202
3.829621,-0.164733
3.833529,-0.133713
3.837436,-0.098294
3.841344,-0.066470
3.845252,-0.044181
3.849160,-0.031648
3.853068,-0.023325
3.856975,-0.011517
3.860883,0.008656
3.864791,0.036105
3.868699,0.064402
3.872606,0.085674
3.876514,0.095251
3.880422,0.094166
3.884330,0.088198
3.888238,0.084333
3.892145,0.086981
3.896053,0.096086
3.899961,0.107812
3.903869,0.116965
3.907776,0.119612
3.911684,0.114754
3.915592,0.104576
3.919500,0.093432
3.923408,0.085979
3.927315,0.085117
3.931223,0.090573
3.935131,0.098922
3.939039,0.105287
3.942946,0.105964
3.946854,0.100451
3.950762,0.091568
3.954670,0.083570
3.958578,0.079535
3.962485,0.079778
3.966393,0.082271
3.970301,0.084574
3.974209,0.085711
3.978116,0.086512
3.982024,0.088160
3.985932,0.090230
3.989840,0.090054
3.993748,0.084315
3.997655,0.071961
4.001563,0.056175
4.005471,0.043561
4.009379,0.040524
4.013286,0.049026
4.017194,0.064645
4.021102,0.078561
4.025010,0.082515
4.028918,0.073690
4.032825,0.056436
4.036733,0.039804
4.040641,0.032490
4.044549,0.038246
4.048456,0.054262
4.052364,0.073038
4.056272,0.086339
4.060180,0.088965
4.064088,0.080616
4.067995,0.065372
4.071903,0.049439
4.075811,0.038397
4.079719,0.035115
4.083626,0.039118
4.087534,0.047496
4.091442,0.056793
4.095350,0.064817
4.099258,0.071488
4.103165,0.078385
4.107073,0.087437
4.110981,0.099605
4.114889,0.114302
4.118796,0.129772
4.122704,0.144033
4.126612,0.155735
4.130520,0.164460
4.134428,0.170415
4.138335,0.173923
4.142243,0.175181
4.146151,0.174465
4.150059,0.172527
4.153966,0.170656
4.157874,0.170147
4.161782,0.171466
4.165690,0.173771
4.169597,0.175280
4.173505,0.174315
4.177413,0.170275
4.181321,0.163841
4.185229,0.156268
4.189136,0.148368
4.193044,0.140037
4.196952,0.130748
4.200860,0.120596
4.204767,0.110904
4.208675,0.103625
4.212583,0.099805
4.216491,0.098297
4.220399,0.096018
4.224306,0.089973
4.228214,0.079775
4.232122,0.068623
4.236030,0.061521
4.239937,0.061606
4.243845,0.067288
4.247753,0.072756
4.251661,0.071980
4.255569,0.063389
4.259476,0.051365
4.263384,0.043069
4.267292,0.043193
4.271200,0.051874
4.275107,0.069044
4.279015,0.102686
4.282923,0.173205
4.286831,0.306704
4.290739,0.517608
4.294646,0.791026
4.298554,1.079332
4.302462,1.320531
4.306370,1.470816
4.310277,1.530762
4.314185,1.544727
4.318093,1.568999
4.322001,1.626475
4.325909,1.678397
4.329816,1.635902
4.333724,1.409288
4.337632,0.966947
4.341540,0.367066
4.345447,-0.259517
4.349355,-0.767032
4.353263,-1.060093
4.357171,-1.130085
4.361079,-1.045304
4.364986,-0.905709
4.368894,-0.791768
4.372802,-0.735331
4.376710,-0.722536
4.380617,-0.718403
4.384525,-0.693260
4.388433,-0.636122
4.392341,-0.552805
4.396249,-0.456475
4.400156,-0.359688
4.404064,-0.271651
4.407972,-0.198685
4.411880,-0.144407
4.415787,-0.108633
4.419695,-0.086874
4.423603,-0.072245
4.427511,-0.059132
4.431419,-0.045871
4.435326,-0.034217
4.439234,-0.026152
4.443142,-0.020885
4.447050,-0.014749
4.450957,-0.004127
4.454865,0.011108
4.458773,0.026735
4.462681,0.036875
4.466589,0.038279
4.470496,0.032883
4.474404,0.026680
4.478312,0.025750
4.482220,0.032374
4.486127,0.043917
4.490035,0.055041
4.493943,0.061461
4.497851,0.062580
4.501758,0.061380
4.505666,0.061992
4.509574,0.066843
4.513482,0.075304
4.517390,0.084504
4.521297,0.091492
4.525205,0.095157
4.529113,0.096581
4.533021,0.097731
4.536928,0.099575
4.540836,0.101103
4.544744,0.099968
4.548652,0.094189
4.552560,0.083585
4.556467,0.069842
4.560375,0.055205
4.564283,0.040845
4.568191,0.026165
4.572098,0.009541
4.576006,-0.010212
4.579914,-0.032923
4.583822,-0.057467
4.587730,-0.083010
4.591637,-0.109797
4.595545,-0.138545
4.599453,-0.168919
4.603361,-0.198568
4.607268,-0.223868
4.611176,-0.241989
4.615084,-0.252641
4.618992,-0.258002
4.622900,-0.260694
4.626807,-0.261289
4.630715,-0.257306
4.634623,-0.244654
4.638531,-0.220659
4.642438,-0.186544
4.646346,-0.147512
4.650254,-0.110262
4.654162,-0.079534
4.658070,-0.055910
4.661977,-0.036210
4.665885,-0.016084
4.669793,0.006965
4.673701,0.032079
4.677608,0.055953
4.681516,0.075412
4.685424,0.089843
4.689332,0.101798
4.693240,0.115417
4.697147,0.133736
4.701055,0.156724
4.704963,0.181254
4.708871,0.202913
4.712778,0.218330
4.716686,0.226486
4.720594,0.228394
4.724502,0.225785
4.728410,0.220037
4.732317,0.212118
4.736225,0.203218
4.740133,0.195098
4.744041,0.189578
4.747948,0.187461
4.751856,0.187840
4.755764,0.188440
4.759672,0.186857
4.763580,0.181882
4.767487,0.174067
4.771395,0.165205
4.775303,0.157128
4.779211,0.150634
4.783118,0.145187
4.787026,0.139537
4.790934,0.132755
4.794842,0.124959
4.798750,0.117207
4.802657,0.110716
4.806565,0.106030
4.810473,0.102787
4.814381,0.100240
4.818288,0.098027
4.822196,0.096552
4.826104,0.096627
4.830012,0.098697
4.833919,0.102239
4.837827,0.105866
4.841735,0.108063
4.845643,0.108071
4.849551,0.106285
4.853458,0.103931
4.857366,0.102262
4.861274,0.101825
4.865182,0.102238
4.869089,0.102578
4.872997,0.102062
4.876905,0.100571
4.880813,0.098673
4.884721,0.097172
4.888628,0.096533
4.892536,0.096609
4.896444,0.096845
4.900352,0.096789
4.904259,0.096515
4.908167,0.096674
4.912075,0.098141
4.915983,0.101515
4.919891,0.106771
4.923798,0.113291
4.927706,0.120219
4.931614,0.126946
4.935522,0.133400
4.939429,0.139863
4.943337,0.146356
4.947245,0.152033
4.951153,0.155207
4.955061,0.154235
4.958968,0.148727
4.962876,0.140122
4.966784,0.131027
4.970692,0.123724
4.974599,0.118920
4.978507,0.115638
4.982415,0.112241
4.986323,0.107711
4.990231,0.102249
4.994138,0.096868
4.998046,0.092485
5.001954,0.089266
5.005862,0.086642
5.009769,0.083837
5.013677,0.080385
5.017585,0.076261
5.021493,0.071725
5.025401,0.067209
5.029308,0.063391
5.033216,0.061148
5.037124,0.061044
5.041032,0.062545
5.044939,0.063806
5.048847,0.062686
5.052755,0.058541
5.056663,0.053239
5.060571,0.050145
5.064478,0.051512
5.068386,0.056391
5.072294,0.061102
5.076202,0.062184
5.080109,0.059392
5.084017,0.056033
5.087925,0.056560
5.091833,0.064402
5.095741,0.083484
5.099648,0.123218
5.103556,0.201834
5.107464,0.341661
5.111372,0.555134
5.115279,0.829149
5.119187,1.120681
5.123095,1.372109
5.127003,1.541302
5.130911,1.627961
5.134818,1.675442
5.138726,1.740781
5.142634,1.847971
5.146542,1.955079
5.150449,1.961685
5.154357,1.759161
5.158265,1.297365
5.162173,0.627194
5.166081,-0.109532
5.169988,-0.740135
5.173896,-1.137845
5.177804,-1.272510
5.181712,-1.209489
5.185619,-1.062618
5.189527,-0.932509
5.193435,-0.865197
5.197343,-0.848705
5.201250,-0.840151
5.205158,-0.800553
5.209066,-0.716055
5.212974,-0.598239
5.216882,-0.470612
5.220789,-0.354002
5.224697,-0.259466
5.228605,-0.189159
5.232513,-0.140481
5.236420,-0.109045
5.240328,-0.089492
5.244236,-0.075786
5.248144,-0.062503
5.252052,-0.046750
5.255959,-0.029157
5.259867,-0.012933
5.263775,-0.001545
5.267683,0.003380
5.271590,0.002687
5.275498,-0.001140
5.279406,-0.005410
5.283314,-0.008288
5.287222,-0.009135
5.291129,-0.008298
5.295037,-0.006651
5.298945,-0.005096
5.302853,-0.004122
5.306760,-0.003642
5.310668,-0.003260
5.314576,-0.002839
5.318484,-0.002923
5.322392,-0.004535
5.326299,-0.008341
5.330207,-0.013769
5.334115,-0.018914
5.338023,-0.021501
5.341930,-0.020353
5.345838,-0.016257
5.349746,-0.011598
5.353654,-0.009110
5.357562,-0.010702
5.361469,-0.017015
5.365377,-0.027583
5.369285,-0.041004
5.373193,-0.054811
5.377100,-0.065431
5.381008,-0.068893
5.384916,-0.062492
5.388824,-0.046662
5.392732,-0.025715
5.396639,-0.006564
5.400547,0.004196
5.404455,0.003213
5.408363,-0.008441
5.412270,-0.026518
5.416178,-0.046311
5.420086,-0.064989
5.423994,-0.082134
5.427902,-0.098503
5.431809,-0.114280
5.435717,-0.128299
5.439625,-0.138729
5.443533,-0.144415
5.447440,-0.145586
5.451348,-0.143222
5.455256,-0.137703
5.459164,-0.128028
5.463072,-0.112469
5.466979,-0.090237
5.470887,-0.062803
5.474795,-0.033750
5.478703,-0.007186
5.482610,0.014195
5.486518,0.030120
5.490426,0.042274
5.494334,0.052829
5.498242,0.063052
5.502149,0.072889
5.506057,0.081626
5.509965,0.088891
5.513873,0.095078
5.517780,0.100849
5.521688,0.106291
5.525596,0.110623
5.529504,0.112870
5.533411,0.112920
5.537319,0.111925
5.541227,0.111489
5.545135,0.112280
5.549043,0.113315
5.552950,0.112699
5.556858,0.109284
5.560766,0.103853
5.564674,0.098782
5.568581,0.096363
5.572489,0.097086
5.576397,0.099244
5.580305,0.100150
5.584213,0.098048
5.588120,0.093252
5.592028,0.087682
5.595936,0.083253
5.599844,0.080388
5.603751,0.077824
5.607659,0.073817
5.611567,0.067792
5.615475,0.061074
5.619383,0.056050
5.623290,0.054356
5.627198,0.055515
5.631106,0.057181
5.635014,0.056860
5.638921,0.053822
5.642829,0.049729
5.646737,0.047501
5.650645,0.049252
5.654553,0.054788
5.658460,0.061702
5.662368,0.066924
5.666276,0.068543
5.670184,0.066658
5.674091,0.062833
5.677999,0.058827
5.681907,0.055586
5.685815,0.053087
5.689723,0.050850
5.693630,0.048574
5.697538,0.046507
5.701446,0.045486
5.705354,0.046751
5.709261,0.051582
5.713169,0.060779
5.717077,0.074080
5.720985,0.089860
5.724893,0.105444
5.728800,0.118156
5.732708,0.126638
5.736616,0.131641
5.740524,0.135668
5.744431,0.141516
5.748339,0.150580
5.752247,0.162004
5.756155,0.173326
5.760063,0.182197
5.763970,0.187966
5.767878,0.191897
5.771786,0.195856
5.775694,0.200474
5.779601,0.204268
5.783509,0.204444
5.787417,0.198825
5.791325,0.187475
5.795233,0.172833
5.799140,0.158228
5.803048,0.145822
5.806956,0.135442
5.810864,0.125077
5.814771,0.112584
5.818679,0.097334
5.822587,0.080677
5.826495,0.065121
5.830403,0.052993
5.834310,0.045488
5.838218,0.042504
5.842126,0.043025
5.846034,0.045620
5.849941,0.048809
5.853849,0.051294
5.857757,0.052157
5.861665,0.051060
5.865572,0.048328
5.869480,0.044852
5.873388,0.041781
5.877296,0.040030
5.881204,0.039717
5.885111,0.039705
5.889019,0.037649
5.892927,0.030929
5.896835,0.018475
5.900742,0.002599
5.904650,-0.010750
5.908558,-0.014402
5.912466,-0.004189
5.916374,0.018114
5.920281,0.046572
5.924189,0.078184
5.928097,0.121193
5.932005,0.197456
5.935912,0.333797
5.939820,0.544515
5.943728,0.815321
5.947636,1.101429
5.951544,1.345502
5.955451,1.507655
5.959359,1.588720
5.963267,1.628778
5.967175,1.677364
5.971082,1.751729
5.974990,1.810964
5.978898,1.767129
5.982806,1.531953
5.986714,1.073479
5.990621,0.447833
5.994529,-0.215486
5.998437,-0.768664
6.002345,-1.110392
6.006252,-1.224670
6.010160,-1.174464
6.014068,-1.058295
6.017976,-0.957753
6.021884,-0.905209
6.025791,-0.884767
6.029699,-0.858319
6.033607,-0.796106
6.037515,-0.693528
6.041422,-0.568590
6.045330,-0.447159
6.049238,-0.348233
6.053146,-0.277628
6.057054,-0.230709
6.060961,-0.199125
6.064869,-0.176015
6.068777,-0.157427
6.072685,-0.141271
6.076592,-0.126190
6.080500,-0.111482
6.084408,-0.097510
6.088316,-0.085539
6.092224,-0.076769
6.096131,-0.071274
6.100039,-0.067761
6.103947,-0.064377
6.107855,-0.059936
6.111762,-0.054598
6.115670,-0.049534
6.119578,-0.045883
6.123486,-0.043812
6.127394,-0.042361
6.131301,-0.040106
6.135209,-0.036168
6.139117,-0.030894
6.143025,-0.025820
6.146932,-0.022887
6.150840,-0.023291
6.154748,-0.026575
6.158656,-0.030610
6.162564,-0.032674
6.166471,-0.031139
6.170379,-0.026714
6.174287,-0.022299
6.178195,-0.021378
6.182102,-0.025941
6.186010,-0.035328
6.189918,-0.046741
6.193826,-0.057023
6.197733,-0.064478
6.201641,-0.069613
6.205549,-0.074498
6.209457,-0.081312
6.213365,-0.091100
6.217272,-0.103472
6.221180,-0.117314
6.225088,-0.131877
6.228996,-0.147323
6.232903,-0.164293
6.236811,-0.182853
6.240719,-0.201766
6.244627,-0.218782
6.248535,-0.231761
6.252442,-0.239804
6.256350,-0.243558
6.260258,-0.244573
6.264166,-0.244233
6.268073,-0.242941
6.271981,-0.239937
6.275889,-0.233658
6.279797,-0.222321
6.283705,-0.204496
6.287612,-0.179541
6.291520,-0.147887
6.295428,-0.111101
6.299336,-0.071646
6.303243,-0.032320
6.307151,0.004457
6.311059,0.037255
6.314967,0.065876
6.318875,0.091079
6.322782,0.113909
6.326690,0.134981
6.330598,0.154140
6.334506,0.170618
6.338413,0.183529
6.342321,0.192329
6.346229,0.197031
6.350137,0.198138
6.354045,0.196393
6.357952,0.192506
6.361860,0.187008
6.365768,0.180305
6.369676,0.172886
6.373583,0.165447
6.377491,0.158736
6.381399,0.153207
6.385307,0.148762
6.389215,0.144871
6.393122,0.140984
6.397030,0.136879
6.400938,0.132656
6.404846,0.128458
6.408753,0.124207
6.412661,0.119580
6.416569,0.114206
6.420477,0.107897
6.424385,0.100777
6.428292,0.093240
6.432200,0.085743
6.436108,0.078544
6.440016,0.071516
6.443923,0.064205
6.447831,0.056109
6.451739,0.047020
6.455647,0.037191
6.459555,0.027212
6.463462,0.017747
6.467370,0.009357
6.471278,0.002465
6.475186,-0.002667
6.479093,-0.006046
6.483001,-0.008028
6.486909,-0.009134
6.490817,-0.009607
6.494725,-0.009007
6.498632,-0.006208
6.502540,0.000071
6.506448,0.010473
6.510356,0.024356
6.514263,0.039671
6.518171,0.053504
6.522079,0.063182
6.525987,0.067473
6.529894,0.067264
6.533802,0.065268
6.537710,0.064813
6.541618,0.068249
6.545526,0.075799
6.549433,0.085479
6.553341,0.094205
6.557249,0.099527
6.561157,0.101004
6.565064,0.100417
6.568972,0.100674
6.572880,0.104025
6.576788,0.110632
6.580696,0.118315
6.584603,0.123702
6.588511,0.124148
6.592419,0.119320
6.596327,0.111391
6.600234,0.103718
6.604142,0.098855
6.608050,0.097205
6.611958,0.097095
6.615866,0.096094
6.619773,0.092597
6.623681,0.086715
6.627589,0.080019
6.631497,0.074402
6.635404,0.070768
6.639312,0.068286
6.643220,0.064683
6.647128,0.057510
6.651036,0.045811
6.654943,0.031220
6.658851,0.017718
6.662759,0.009922
6.666667,0.010715
6.670574,0.019598
6.674482,0.032835
6.678390,0.045428
6.682298,0.053686
6.686206,0.056821
6.690113,0.056624
6.694021,0.055660
6.697929,0.055310
6.701837,0.054987
6.705744,0.052884
6.709652,0.047544
6.713560,0.039034
6.717468,0.028953
6.721376,0.019401
6.725283,0.011766
6.729191,0.006176
6.733099,0.001864
6.737007,-0.002061
6.740914,-0.006158
6.744822,-0.010887
6.748730,-0.017082
6.752638,-0.025818
6.756546,-0.037297
6.760453,-0.049543
6.764361,-0.058385
6.768269,-0.059535
6.772177,-0.051463
6.776084,-0.036141
6.779992,-0.015405
6.783900,0.015857
6.787808,0.074472
6.791716,0.185685
6.795623,0.370093
6.799531,0.626642
6.803439,0.922981
6.807347,1.202573
6.811254,1.408246
6.815162,1.509861
6.819070,1.518348
6.822978,1.474992
6.826886,1.420632
6.830793,1.364015
6.834701,1.271101
6.838609,1.084666
6.842517,0.763610
6.846424,0.317471
6.850332,-0.186491
6.854240,-0.649466
6.858148,-0.985565
6.862055,-1.158728
6.865963,-1.191851
6.869871,-1.145837
6.873779,-1.083913
6.877687,-1.042721
6.881594,-1.024072
6.885502,-1.006654
6.889410,-0.965966
6.893318,-0.889349
6.897225,-0.779881
6.901133,-0.651408
6.905041,-0.521079
6.908949,-0.404084
6.912857,-0.311200
6.916764,-0.247398
6.920672,-0.210652
6.924580,-0.192054
6.928488,-0.178809
6.932395,-0.159681
6.936303,-0.130057
6.940211,-0.093356
6.944119,-0.057848
6.948027,-0.031033
6.951934,-0.015292
6.955842,-0.007346
6.959750,-0.001330
6.963658,0.007018
6.967565,0.017958
6.971473,0.028449
6.975381,0.034943
6.979289,0.035995
6.983197,0.032915
6.987104,0.028480
6.991012,0.025104
6.994920,0.023876
6.998828,0.024737
7.002735,0.027114
7.006643,0.030199
7.010551,0.032816
7.014459,0.033370
7.018367,0.030343
7.022274,0.023188
7.026182,0.012944
7.030090,0.001943
7.033998,-0.007398
7.037905,-0.013976
7.041813,-0.018617
7.045721,-0.023393
7.049629,-0.030076
7.053537,-0.038827
7.057444,-0.048183
7.061352,-0.056407
7.065260,-0.063219
7.069168,-0.070461
7.073075,-0.080958
7.076983,-0.096266
7.080891,-0.115050
7.084799,-0.133550
7.088707,-0.148023
7.092614,-0.157394
7.096522,-0.163975
7.100430,-0.171601
7.104338,-0.182600
7.108245,-0.195985
7.112153,-0.208301
7.116061,-0.216363
7.119969,-0.219630
7.123877,-0.220347
7.127784,-0.221413
7.131692,-0.223761
7.135600,-0.225249
7.139508,-0.221814
7.143415,-0.209982
7.147323,-0.188973
7.151231,-0.161187
7.155139,-0.131009
7.159047,-0.102833
7.162954,-0.079413
7.166862,-0.061168
7.170770,-0.046515
7.174678,-0.032930
7.178585,-0.018306
7.182493,-0.002067
7.186401,0.014479
7.190309,0.028841
7.194216,0.038784
7.198124,0.043690
7.202032,0.044955
7.205940,0.045109
7.209848,0.046282
7.213755,0.049150
7.217663,0.053145
7.221571,0.057686
7.225479,0.063260
7.229386,0.071258
7.233294,0.082537
7.237202,0.095871
7.241110,0.107793
7.245018,0.114306
7.248925,0.113401
7.252833,0.106503
7.256741,0.097652
7.260649,0.090929
7.264556,0.088014
7.268464,0.087669
7.272372,0.087366
7.276280,0.085660
7.280188,0.083398
7.284095,0.082867
7.288003,0.085676
7.291911,0.091171
7.295819,0.096756
7.299726,0.099894
7.303634,0.100068
7.307542,0.098951
7.311450,0.098485
7.315358,0.098471
7.319265,0.095937
7.323173,0.087283
7.327081,0.071902
7.330989,0.054412
7.334896,0.043268
7.338804,0.046042
7.342712,0.064318
7.346620,0.091750
7.350528,0.116835
7.354435,0.128695
7.358343,0.122170
7.362251,0.099276
7.366159,0.066680
7.370066,0.031448
7.373974,-0.002071
7.377882,-0.032658
7.381790,-0.060496
7.385698,-0.085223
7.389605,-0.105406
7.393513,-0.119719
7.397421,-0.128719
7.401329,-0.135670
7.405236,-0.145531
7.409144,-0.162362
7.413052,-0.186456
7.416960,-0.212889
7.420868,-0.232665
7.424775,-0.236289
7.428683,-0.218159
7.432591,-0.179436
7.436499,-0.127725
7.440406,-0.073545
7.444314,-0.025339
7.448222,0.014389
7.452130,0.049688
7.456038,0.088060
7.459945,0.135241
7.463853,0.190776
7.467761,0.247110
7.471669,0.293008
7.475576,0.319530
7.479484,0.325120
7.483392,0.316645
7.487300,0.305607
7.491208,0.301674
7.495115,0.307419
7.499023,0.317504
7.502931,0.322750
7.506839,0.316435
7.510746,0.298689
7.514654,0.276167
7.518562,0.257348
7.522470,0.246710
7.526377,0.241770
7.530285,0.234924
7.534193,0.218784
7.538101,0.191252
7.542009,0.156874
7.545916,0.123663
7.549824,0.097779
7.553732,0.079903
7.557640,0.065732
7.561547,0.049954
7.565455,0.030574
7.569363,0.010471
7.573271,-0.004759
7.577179,-0.010862
7.581086,-0.007955
7.584994,-0.000562
7.588902,0.005015
7.592810,0.003967
7.596717,-0.005105
7.600625,-0.020300
7.604533,-0.037822
7.608441,-0.053671
7.612349,-0.065020
7.616256,-0.071114
7.620164,-0.073422
7.624072,-0.074729
7.627980,-0.077362
7.631887,-0.081668
7.635795,-0.086091
7.639703,-0.088938
7.643611,-0.089894
7.647519,-0.088510
7.651426,-0.079040
7.655334,-0.045218
7.659242,0.038724
7.663150,0.196904
7.667057,0.434095
7.670965,0.722605
7.674873,1.005501
7.678781,1.219153
7.682689,1.324377
7.686596,1.326658
7.690504,1.270026
7.694412,1.205435
7.698320,1.152685
7.702227,1.081786
7.706135,0.928661
7.710043,0.637638
7.713951,0.204449
7.717859,-0.308145
7.721766,-0.793104
7.725674,-1.147189
7.729582,-1.316258
7.733490,-1.313059
7.737397,-1.201028
7.741305,-1.057782
7.745213,-0.940878
7.749121,-0.872327
7.753029,-0.843777
7.756936,-0.832506
7.760844,-0.816046
7.764752,-0.779294
7.768660,-0.715483
7.772567,-0.625480
7.776475,-0.517706
7.780383,-0.407204
7.784291,-0.311489
7.788199,-0.243552
7.792106,-0.205913
7.796014,-0.190056
7.799922,-0.182124
7.803830,-0.171194
7.807737,-0.154599
7.811645,-0.137099
7.815553,-0.125248
7.819461,-0.121527
7.823369,-0.122450
7.827276,-0.121523
7.831184,-0.114293
7.835092,-0.101496
7.839000,-0.088166
7.842907,-0.079795
7.846815,-0.078646
7.850723,-0.082753
7.854631,-0.087805
7.858538,-0.090015
7.862446,-0.087792
7.866354,-0.081415
7.870262,-0.071666
7.874170,-0.059021
7.878077,-0.044112
7.881985,-0.028742
7.885893,-0.016045
7.889801,-0.009136
7.893708,-0.009067
7.897616,-0.013814
7.901524,-0.019378
7.905432,-0.022399
7.909340,-0.022281
7.913247,-0.021088
7.917155,-0.021226
7.921063,-0.022889
7.924971,-0.023583
7.928878,-0.020466
7.932786,-0.013788
7.936694,-0.008503
7.940602,-0.012287
7.944510,-0.030906
7.948417,-0.064107
7.952325,-0.105069
7.956233,-0.144052
7.960141,-0.173879
7.964048,-0.193614
7.967956,-0.208085
7.971864,-0.223845
7.975772,-0.244561
7.979680,-0.269019
7.983587,-0.292828
7.987495,-0.312097
7.991403,-0.326106
7.995311,-0.336971
7.999218,-0.346833
8.003126,-0.355015
8.007034,-0.357637
8.010942,-0.350238
8.014850,-0.331587
8.018757,-0.305677
8.022665,-0.279971
8.026573,-0.260760
8.030481,-0.248819
8.034388,-0.238672
8.038296,-0.222287
8.042204,-0.194800
8.046112,-0.158292
8.050020,-0.121010
8.053927,-0.092552
8.057835,-0.078245
8.061743,-0.076284
8.065651,-0.079207
8.069558,-0.078446
8.073466,-0.068968
8.077374,-0.051336
8.081282,-0.030530
8.085190,-0.012820
8.089097,-0.002781
8.093005,-0.001838
8.096913,-0.008473
8.100821,-0.019358
8.104728,-0.030561
8.108636,-0.038500
8.112544,-0.040759
8.116452,-0.036874
8.120360,-0.028854
8.124267,-0.020833
8.128175,-0.017512
8.132083,-0.021903
8.135991,-0.033595
8.139898,-0.048777
8.143806,-0.062210
8.147714,-0.070092
8.151622,-0.072057
8.155530,-0.071111
8.159437,-0.071561
8.163345,-0.076272
8.167253,-0.084925
8.171161,-0.094395
8.175068,-0.101041
8.178976,-0.103466
8.182884,-0.103794
8.186792,-0.106357
8.190699,-0.114493
8.194607,-0.127657
8.198515,-0.141104
8.202423,-0.148626
8.206331,-0.146658
8.210238,-0.136884
8.214146,-0.125426
8.218054,-0.118995
8.221962,-0.120533
8.225869,-0.127333
8.229777,-0.132960
8.233685,-0.131711
8.237593,-0.122541
8.241501,-0.109791
8.245408,-0.100274
8.249316,-0.098806
8.253224,-0.105282
8.257132,-0.115182
8.261039,-0.122865
8.264947,-0.125095
8.268855,-0.122344
8.272763,-0.117316
8.276671,-0.112322
8.280578,-0.107759
8.284486,-0.102723
8.288394,-0.096790
8.292302,-0.091062
8.296209,-0.087425
8.300117,-0.086718
8.304025,-0.087611
8.307933,-0.087295
8.311841,-0.083427
8.315748,-0.075640
8.319656,-0.065415
8.323564,-0.054629
8.327472,-0.044217
8.331379,-0.034146
8.335287,-0.024560
8.339195,-0.016789
8.343103,-0.013035
8.347011,-0.014836
8.350918,-0.021603
8.354826,-0.030613
8.358734,-0.038556
8.362642,-0.043458
8.366549,-0.045494
8.370457,-0.046237
8.374365,-0.047152
8.378273,-0.048677
8.382181,-0.050579
8.386088,-0.053031
8.389996,-0.057162
8.393904,-0.064296
8.397812,-0.074379
8.401719,-0.085034
8.405627,-0.092396
8.409535,-0.093473
8.413443,-0.088376
8.417351,-0.080670
8.421258,-0.075336
8.425166,-0.075670
8.429074,-0.081283
8.432982,-0.088628
8.436889,-0.093639
8.440797,-0.094483
8.444705,-0.092385
8.448613,-0.090038
8.452521,-0.089148
8.456428,-0.089322
8.460336,-0.089259
8.464244,-0.088954
8.468152,-0.090511
8.472059,-0.096322
8.475967,-0.105945
8.479875,-0.114722
8.483783,-0.116000
8.487691,-0.105412
8.491598,-0.082854
8.495506,-0.048875
8.499414,0.002880
8.503322,0.090348
8.507229,0.237762
8.511137,0.459806
8.515045,0.744049
8.518953,1.045342
8.522860,1.300728
8.526768,1.459856
8.530676,1.512935
8.534584,1.496215
8.538492,1.467437
8.542399,1.463814
8.546307,1.469203
8.550215,1.414332
8.554123,1.214198
8.558030,0.822342
8.561938,0.269010
8.565846,-0.341502
8.569754,-0.874525
8.573662,-1.225148
8.577569,-1.361132
8.581477,-1.326792
8.585385,-1.210111
8.589293,-1.095553
8.593200,-1.029347
8.597108,-1.011984
8.601016,-1.014466
8.604924,-1.002871
8.608832,-0.956052
8.612739,-0.870343
8.616647,-0.754799
8.620555,-0.624155
8.624463,-0.494137
8.628370,-0.379154
8.632278,-0.290177
8.636186,-0.231987
8.640094,-0.201353
8.644002,-0.188349
8.647909,-0.181033
8.651817,-0.170987
8.655725,-0.156316
8.659633,-0.140438
8.663540,-0.128022
8.667448,-0.121203
8.671356,-0.118548
8.675264,-0.116809
8.679172,-0.113472
8.683079,-0.108028
8.686987,-0.101408
8.690895,-0.094679
8.694803,-0.088372
8.698710,-0.082813
8.702618,-0.078712
8.706526,-0.077080
8.710434,-0.078355
8.714342,-0.081555
8.718249,-0.084403
8.722157,-0.084608
8.726065,-0.081438
8.729973,-0.076317
8.733880,-0.071860
8.737788,-0.070009
8.741696,-0.070746
8.745604,-0.072455
8.749512,-0.073631
8.753419,-0.074451
8.757327,-0.076813
8.761235,-0.082710
8.765143,-0.092245
8.769050,-0.103014
8.772958,-0.111582
8.776866,-0.116091
8.780774,-0.118024
8.784682,-0.121631
8.788589,-0.131237
8.792497,-0.148297
8.796405,-0.170341
8.800313,-0.192573
8.804220,-0.210966
8.808128,-0.224643
8.812036,-0.236013
8.815944,-0.248772
8.819852,-0.265348
8.823759,-0.285523
8.827667,-0.306935
8.831575,-0.326747
8.835483,-0.343105
8.839390,-0.355439
8.843298,-0.363724
8.847206,-0.367625
8.851114,-0.366367
8.855021,-0.359367
8.858929,-0.346925
8.862837,-0.330203
8.866745,-0.310462
8.870653,-0.288274
8.874560,-0.263537
8.878468,-0.236357
8.882376,-0.208000
8.886284,-0.180925
8.890191,-0.157663
8.894099,-0.139282
8.898007,-0.124574
8.901915,-0.110663
8.905823,-0.094732
8.909730,-0.075855
8.913638,-0.055730
8.917546,-0.037818
8.921454,-0.025369
8.925361,-0.019604
8.929269,-0.019218
8.933177,-0.021366
8.937085,-0.023280
8.940993,-0.023352
8.944900,-0.021229
8.948808,-0.017361
8.952716,-0.012729
8.956624,-0.008881
8.960531,-0.007795
8.964439,-0.011163
8.968347,-0.019309
8.972255,-0.030554
8.976163,-0.041688
8.980070,-0.049478
8.983978,-0.052332
8.987886,-0.051069
8.991794,-0.048276
8.995701,-0.046692
8.999609,-0.047713
9.003517,-0.050952
9.007425,-0.055038
9.011333,-0.058923
9.015240,-0.062727
9.019148,-0.067572
9.023056,-0.074635
9.026964,-0.084152
9.030871,-0.095068
9.034779,-0.105522
9.038687,-0.113798
9.042595,-0.119080
9.046503,-0.121586
9.050410,-0.122120
9.054318,-0.121498
9.058226,-0.120212
9.062134,-0.118463
9.066041,-0.116379
9.069949,-0.114212
9.073857,-0.112362
9.077765,-0.111204
9.081673,-0.110831
9.085580,-0.110909
9.089488,-0.110773
9.093396,-0.109743
9.097304,-0.107490
9.101211,-0.104265
9.105119,-0.100935
9.109027,-0.098764
9.112935,-0.098944
9.116843,-0.101971
9.120750,-0.107165
9.124658,-0.112690
9.128566,-0.116239
9.132474,-0.116062
9.136381,-0.111833
9.140289,-0.104921
9.144197,-0.097981
9.148105,-0.093992
9.152013,-0.095011
9.155920,-0.101155
9.159828,-0.110379
9.163736,-0.119341
9.167644,-0.124969
9.171551,-0.125785
9.175459,-0.122155
9.179367,-0.115448
9.183275,-0.106893
9.187182,-0.097110
9.191090,-0.086562
9.194998,-0.076287
9.198906,-0.067928
9.202814,-0.062751
9.206721,-0.060345
9.210629,-0.058228
9.214537,-0.053033
9.218445,-0.042701
9.222352,-0.028211
9.226260,-0.013510
9.230168,-0.003493
9.234076,-0.001303
9.237984,-0.006685
9.241891,-0.016414
9.245799,-0.026379
9.249707,-0.033916
9.253615,-0.038981
9.257522,-0.043616
9.261430,-0.050309
9.265338,-0.060355
9.269246,-0.073151
9.273154,-0.086644
9.277061,-0.098448
9.280969,-0.106956
9.284877,-0.111928
9.288785,-0.114427
9.292692,-0.116215
9.296600,-0.118899
9.300508,-0.123193
9.304416,-0.128633
9.308324,-0.133894
9.312231,-0.137540
9.316139,-0.138783
9.320047,-0.137810
9.323955,-0.135547
9.327862,-0.133169
9.331770,-0.131779
9.335678,-0.132391
9.339586,-0.135881
9.343494,-0.142495
9.347401,-0.151111
9.351309,-0.159083
9.355217,-0.163458
9.359125,-0.162973
9.363032,-0.158638
9.366940,-0.150659
9.370848,-0.132205
9.374756,-0.084615
9.378664,0.019653
9.382571,0.203722
9.386479,0.468060
9.390387,0.779481
9.394295,1.078400
9.398202,1.304885
9.402110,1.429929
9.406018,1.471198
9.409926,1.479403
9.413834,1.500040
9.417741,1.533750
9.421649,1.523140
9.425557,1.379429
9.429465,1.036582
9.433372,0.500786
9.437280,-0.136625
9.441188,-0.733385
9.445096,-1.159352
9.449004,-1.352731
9.452911,-1.339018
9.456819,-1.205776
9.460727,-1.052118
9.464635,-0.943336
9.468542,-0.893103
9.472450,-0.875871
9.476358,-0.854762
9.480266,-0.805500
9.484174,-0.724950
9.488081,-0.625281
9.491989,-0.522775
9.495897,-0.429812
9.499805,-0.352866
9.503712,-0.294088
9.507620,-0.252945
9.511528,-0.226624
9.515436,-0.210279
9.519343,-0.198374
9.523251,-0.186811
9.527159,-0.174302
9.531067,-0.161880
9.534975,-0.151016
9.538882,-0.141962
9.542790,-0.133572
9.546698,-0.124469
9.550606,-0.114335
9.554513,-0.104137
9.558421,-0.095175
9.562329,-0.087932
9.566237,-0.081825
9.570145,-0.076060
9.574052,-0.070749
9.577960,-0.067212
9.581868,-0.067149
9.585776,-0.071327
9.589683,-0.078857
9.593591,-0.087623
9.597499,-0.095535
9.601407,-0.101705
9.605315,-0.106760
9.609222,-0.112147
9.613130,-0.118962
9.617038,-0.127149
9.620946,-0.135603
9.624853,-0.143009
9.628761,-0.148762
9.632669,-0.153297
9.636577,-0.157703
9.640485,-0.162981
9.644392,-0.169497
9.648300,-0.176929
9.652208,-0.184679
9.656116,-0.192387
9.660023,-0.200142
9.663931,-0.208254
9.667839,-0.216779
9.671747,-0.225265
9.675655,-0.233007
9.679562,-0.239658
9.683470,-0.245679
9.687378,-0.252182
9.691286,-0.260251
9.695193,-0.270217
9.699101,-0.281397
9.703009,-0.292381
9.706917,-0.301637
9.710825,-0.308053
9.714732,-0.311173
9.718640,-0.311014
9.722548,-0.307616
9.726456,-0.300590
9.730363,-0.289065
9.734271,-0.272153
9.738179,-0.249701
9.742087,-0.222786
9.745995,-0.193579
9.749902,-0.164661
9.753810,-0.138243
9.757718,-0.115686
9.761626,-0.097356
9.765533,-0.082693
9.769441,-0.070422
9.773349,-0.059033
9.777257,-0.047473
9.781165,-0.035737
9.785072,-0.024872
9.788980,-0.016224
9.792888,-0.010343
9.796796,-0.006356
9.800703,-0.002359
9.804611,0.003360
9.808519,0.011103
9.812427,0.019457
9.816335,0.026150
9.820242,0.029484
9.824150,0.029353
9.828058,0.027146
9.831966,0.024682
9.835873,0.023010
9.839781,0.021884
9.843689,0.020182
9.847597,0.016815
9.851504,0.011471
9.855412,0.004812
9.859320,-0.001826
9.863228,-0.006940
9.867136,-0.009384
9.871043,-0.008793
9.874951,-0.005801
9.878859,-0.001893
9.882767,0.001107
9.886674,0.001714
9.890582,-0.000746
9.894490,-0.006057
9.898398,-0.013417
9.902306,-0.021852
9.906213,-0.030524
9.910121,-0.038829
9.914029,-0.046323
9.917937,-0.052621
9.921844,-0.057399
9.925752,-0.060574
9.929660,-0.062492
9.933568,-0.063906
9.937476,-0.065567
9.941383,-0.067592
9.945291,-0.069061
9.949199,-0.068303
9.953107,-0.063879
9.957014,-0.055702
9.960922,-0.045448
9.964830,-0.035791
9.968738,-0.028857
9.972646,-0.024902
9.976553,-0.022251
9.980461,-0.018633
9.984369,-0.012985
9.988277,-0.006285
9.992184,-0.000713
9.996092,0.002207
10.000000,0.002954
