time,ecg
0.000000,-0.347991
0.003908,-0.305153
0.007816,-0.271415
0.011723,-0.250539
0.015631,-0.239300
0.019539,-0.230468
0.023447,-0.217983
0.027354,-0.200637
0.031262,-0.182027
0.035170,-0.167381
0.039078,-0.159808
0.042986,-0.158495
0.046893,-0.159660
0.050801,-0.159193
0.054709,-0.155069
0.058617,-0.148063
0.062524,-0.140603
0.066432,-0.134811
0.070340,-0.131144
0.074248,-0.128507
0.078156,-0.125531
0.082063,-0.121896
0.085971,-0.118606
0.089879,-0.117039
0.093787,-0.117568
0.097694,-0.118942
0.101602,-0.119019
0.105510,-0.116345
0.109418,-0.111347
0.113326,-0.106104
0.117233,-0.102752
0.121141,-0.101752
0.125049,-0.101512
0.128957,-0.099883
0.132864,-0.096496
0.136772,-0.093927
0.140680,-0.096301
0.144588,-0.105986
0.148496,-0.120960
0.152403,-0.135494
0.156311,-0.144333
0.160219,-0.147434
0.164127,-0.151090
0.168034,-0.163715
0.171942,-0.188942
0.175850,-0.221512
0.179758,-0.249976
0.183665,-0.265011
0.187573,-0.267268
0.191481,-0.268201
0.195389,-0.282282
0.199297,-0.315805
0.203204,-0.360860
0.207112,-0.399874
0.211020,-0.418390
0.214928,-0.417069
0.218835,-0.413598
0.222743,-0.431907
0.226651,-0.485264
0.230559,-0.564816
0.234467,-0.641955
0.238374,-0.683570
0.242282,-0.670352
0.246190,-0.606294
0.250098,-0.513823
0.254005,-0.419044
0.257913,-0.337926
0.261821,-0.272512
0.265729,-0.218031
0.269637,-0.173488
0.273544,-0.146168
0.277452,-0.145951
0.281360,-0.174089
0.285268,-0.216228
0.289175,-0.246776
0.293083,-0.243048
0.296991,-0.199629
0.300899,-0.132507
0.304807,-0.069757
0.308714,-0.035400
0.312622,-0.037680
0.316530,-0.068743
0.320438,-0.113265
0.324345,-0.157114
0.328253,-0.189162
0.332161,-0.197789
0.336069,-0.170244
0.339977,-0.100774
0.343884,-0.003432
0.347792,0.083294
0.351700,0.110605
0.355608,0.048913
0.359515,-0.086043
0.363423,-0.232168
0.367331,-0.311895
0.371239,-0.278474
0.375147,-0.147116
0.379054,0.011904
0.382962,0.115680
0.386870,0.119093
0.390778,0.039751
0.394685,-0.058118
0.398593,-0.107893
0.402501,-0.081754
0.406409,-0.002416
0.410317,0.078498
0.414224,0.116610
0.418132,0.099776
0.422040,0.048032
0.425948,-0.006212
0.429855,-0.040476
0.433763,-0.052129
0.437671,-0.052970
0.441579,-0.056506
0.445487,-0.068367
0.449394,-0.084831
0.453302,-0.097453
0.457210,-0.098880
0.461118,-0.086699
0.465025,-0.064897
0.468933,-0.043274
0.472841,-0.034313
0.476749,-0.047122
0.480657,-0.080487
0.484564,-0.119730
0.488472,-0.141616
0.492380,-0.126720
0.496288,-0.072510
0.500195,0.001945
0.504103,0.064448
0.508011,0.087357
0.511919,0.063680
0.515826,0.011085
0.519734,-0.038879
0.523642,-0.059281
0.527550,-0.042147
0.531458,-0.000152
0.535365,0.043917
0.539273,0.071699
0.543181,0.077979
0.547089,0.069173
0.550996,0.054945
0.554904,0.040633
0.558812,0.026159
0.562720,0.010862
0.566628,-0.001405
0.570535,-0.002471
0.574443,0.014009
0.578351,0.045369
0.582259,0.078269
0.586166,0.095237
0.590074,0.085703
0.593982,0.053838
0.597890,0.017271
0.601798,-0.002908
0.605705,0.005699
0.609613,0.040370
0.613521,0.086210
0.617429,0.125629
0.621336,0.147561
0.625244,0.150896
0.629152,0.141447
0.633060,0.126230
0.636968,0.109756
0.640875,0.094149
0.644783,0.081367
0.648691,0.074345
0.652599,0.075602
0.656506,0.084683
0.660414,0.097136
0.664322,0.106546
0.668230,0.108464
0.672138,0.103415
0.676045,0.096662
0.679953,0.094747
0.683861,0.101102
0.687769,0.113638
0.691676,0.125886
0.695584,0.131030
0.699492,0.126392
0.703400,0.115761
0.707308,0.108054
0.711215,0.112801
0.715123,0.134636
0.719031,0.169719
0.722939,0.206273
0.726846,0.229373
0.730754,0.227852
0.734662,0.199906
0.738570,0.154489
0.742478,0.107646
0.746385,0.075484
0.750293,0.067226
0.754201,0.081668
0.758109,0.108539
0.762016,0.133765
0.765924,0.145775
0.769832,0.139752
0.773740,0.118165
0.777648,0.088058
0.781555,0.057197
0.785463,0.031319
0.789371,0.013422
0.793279,0.004506
0.797186,0.004387
0.801094,0.011775
0.805002,0.023916
0.808910,0.036830
0.812818,0.046780
0.816725,0.052387
0.820633,0.055803
0.824541,0.061624
0.828449,0.073770
0.832356,0.092276
0.836264,0.112328
0.840172,0.126489
0.844080,0.128814
0.847987,0.118166
0.851895,0.098596
0.855803,0.076658
0.859711,0.057594
0.863619,0.042970
0.867526,0.031358
0.871434,0.021597
0.875342,0.016585
0.879250,0.025259
0.883157,0.061519
0.887065,0.140344
0.890973,0.272350
0.894881,0.458389
0.898789,0.685936
0.902696,0.928956
0.906604,1.152490
0.910512,1.321419
0.914420,1.410478
0.918327,1.410925
0.922235,1.330161
0.926143,1.184256
0.930051,0.987694
0.933959,0.746825
0.937866,0.461573
0.941774,0.134764
0.945682,-0.216837
0.949590,-0.557597
0.953497,-0.839195
0.957405,-1.016661
0.961313,-1.066966
0.965221,-1.000606
0.969129,-0.859661
0.973036,-0.702467
0.976944,-0.581627
0.980852,-0.525088
0.984760,-0.528245
0.988667,-0.559837
0.992575,-0.578327
0.996483,-0.551148
1.000391,-0.468352
1.004299,-0.345174
1.008206,-0.213317
1.012114,-0.105940
1.016022,-0.043743
1.019930,-0.028247
1.023837,-0.044271
1.027745,-0.069033
1.031653,-0.082675
1.035561,-0.075345
1.039469,-0.048545
1.043376,-0.011541
1.047284,0.024378
1.051192,0.050749
1.055100,0.064031
1.059007,0.064861
1.062915,0.055873
1.066823,0.039884
1.070731,0.019526
1.074639,-0.001949
1.078546,-0.019994
1.082454,-0.029493
1.086362,-0.026952
1.090270,-0.012845
1.094177,0.007724
1.098085,0.027011
1.101993,0.038556
1.105901,0.040800
1.109809,0.037953
1.113716,0.037173
1.117624,0.043613
1.121532,0.056584
1.125440,0.069680
1.129347,0.075042
1.133255,0.068897
1.137163,0.054408
1.141071,0.039611
1.144979,0.031740
1.148886,0.031958
1.152794,0.034412
1.156702,0.030472
1.160610,0.015279
1.164517,-0.008148
1.168425,-0.030360
1.172333,-0.041676
1.176241,-0.038895
1.180148,-0.027800
1.184056,-0.019645
1.187964,-0.024016
1.191872,-0.043009
1.195780,-0.070785
1.199687,-0.098662
1.203595,-0.121823
1.207503,-0.142522
1.211411,-0.167352
1.215318,-0.200714
1.219226,-0.239575
1.223134,-0.273769
1.227042,-0.292099
1.230950,-0.290257
1.234857,-0.274978
1.238765,-0.261167
1.242673,-0.263389
1.246581,-0.287046
1.250488,-0.324852
1.254396,-0.360767
1.258304,-0.378738
1.262212,-0.370815
1.266120,-0.340136
1.270027,-0.297838
1.273935,-0.256485
1.277843,-0.224030
1.281751,-0.201135
1.285658,-0.182413
1.289566,-0.160246
1.293474,-0.129191
1.297382,-0.089191
1.301290,-0.046380
1.305197,-0.010893
1.309105,0.007903
1.313013,0.006958
1.316921,-0.007142
1.320828,-0.019815
1.324736,-0.015373
1.328644,0.014107
1.332552,0.063383
1.336460,0.116107
1.340367,0.153783
1.344275,0.166300
1.348183,0.157351
1.352091,0.141233
1.355998,0.133191
1.359906,0.139709
1.363814,0.155043
1.367722,0.165941
1.371630,0.161046
1.375537,0.138621
1.379445,0.107811
1.383353,0.083192
1.387261,0.076558
1.391168,0.091032
1.395076,0.120432
1.398984,0.153211
1.402892,0.177939
1.406800,0.187341
1.410707,0.179672
1.414615,0.157996
1.418523,0.128558
1.422431,0.098997
1.426338,0.076539
1.430246,0.066245
1.434154,0.069703
1.438062,0.084772
1.441970,0.106536
1.445877,0.129018
1.449785,0.146834
1.453693,0.156315
1.457601,0.156054
1.461508,0.147108
1.465416,0.132861
1.469324,0.118268
1.473232,0.108292
1.477140,0.105868
1.481047,0.110439
1.484955,0.118129
1.488863,0.123816
1.492771,0.123978
1.496678,0.118489
1.500586,0.110121
1.504494,0.102171
1.508402,0.096083
1.512309,0.090979
1.516217,0.085473
1.520125,0.080076
1.524033,0.077797
1.527941,0.081951
1.531848,0.092719
1.535756,0.105496
1.539664,0.113021
1.543572,0.110276
1.547479,0.098518
1.551387,0.084987
1.555295,0.077936
1.559203,0.080421
1.563111,0.087694
1.567018,0.090624
1.570926,0.082921
1.574834,0.066731
1.578742,0.052051
1.582649,0.050072
1.586557,0.065237
1.590465,0.091837
1.594373,0.117524
1.598281,0.130953
1.602188,0.128084
1.606096,0.113199
1.610004,0.094922
1.613912,0.080907
1.617819,0.074871
1.621727,0.076906
1.625635,0.085212
1.629543,0.096933
1.633451,0.107780
1.637358,0.112140
1.641266,0.105263
1.645174,0.086793
1.649082,0.062793
1.652989,0.043741
1.656897,0.038924
1.660805,0.050797
1.664713,0.073382
1.668621,0.096077
1.672528,0.110274
1.676436,0.114229
1.680344,0.112998
1.684252,0.113907
1.688159,0.121113
1.692067,0.133123
1.695975,0.144609
1.699883,0.150637
1.703791,0.150020
1.707698,0.145624
1.711606,0.141971
1.715514,0.142259
1.719422,0.146761
1.723329,0.153214
1.727237,0.158411
1.731145,0.159791
1.735053,0.156358
1.738961,0.148897
1.742868,0.139739
1.746776,0.132055
1.750684,0.128586
1.754592,0.130105
1.758499,0.134574
1.762407,0.137978
1.766315,0.136768
1.770223,0.130375
1.774131,0.121748
1.778038,0.115067
1.781946,0.112040
1.785854,0.109774
1.789762,0.102454
1.793669,0.086177
1.797577,0.063433
1.801485,0.043366
1.805393,0.036810
1.809301,0.049087
1.813208,0.075573
1.817116,0.103424
1.821024,0.118564
1.824932,0.113406
1.828839,0.090442
1.832747,0.059883
1.836655,0.033515
1.840563,0.018793
1.844470,0.016180
1.848378,0.020282
1.852286,0.023637
1.856194,0.021813
1.860102,0.018557
1.864009,0.029081
1.867917,0.078516
1.871825,0.193181
1.875733,0.386103
1.879640,0.643771
1.883548,0.923814
1.887456,1.169276
1.891364,1.334863
1.895272,1.410368
1.899179,1.424817
1.903087,1.425182
1.906995,1.440460
1.910903,1.453967
1.914810,1.404176
1.918718,1.217370
1.922626,0.854429
1.926534,0.343406
1.930442,-0.223089
1.934349,-0.725592
1.938257,-1.069396
1.942165,-1.221427
1.946073,-1.214147
1.949980,-1.118835
1.953888,-1.007329
1.957796,-0.924073
1.961704,-0.879521
1.965612,-0.860984
1.969519,-0.848565
1.973427,-0.825775
1.977335,-0.782393
1.981243,-0.713615
1.985150,-0.619986
1.989058,-0.508712
1.992966,-0.393437
1.996874,-0.290057
2.000782,-0.209897
2.004689,-0.154718
2.008597,-0.117359
2.012505,-0.087691
2.016413,-0.059465
2.020320,-0.033167
2.024228,-0.013308
2.028136,-0.002986
2.032044,-0.000312
2.035952,0.000640
2.039859,0.005516
2.043767,0.015713
2.047675,0.027821
2.051583,0.036631
2.055490,0.039129
2.059398,0.036436
2.063306,0.032553
2.067214,0.031274
2.071122,0.033790
2.075029,0.038653
2.078937,0.043681
2.082845,0.047994
2.086753,0.052513
2.090660,0.058729
2.094568,0.066950
2.098476,0.075527
2.102384,0.081679
2.106292,0.083280
2.110199,0.080290
2.114107,0.074838
2.118015,0.069969
2.121923,0.067972
2.125830,0.069309
2.129738,0.072603
2.133646,0.075408
2.137554,0.075197
2.141462,0.070159
2.145369,0.059733
2.149277,0.044842
2.153185,0.027688
2.157093,0.010940
2.161000,-0.003491
2.164908,-0.015427
2.168816,-0.026450
2.172724,-0.038881
2.176631,-0.054410
2.180539,-0.073381
2.184447,-0.095168
2.188355,-0.119154
2.192263,-0.145259
2.196170,-0.173449
2.200078,-0.202719
2.203986,-0.230731
2.207894,-0.254788
2.211801,-0.273602
2.215709,-0.288321
2.219617,-0.301674
2.223525,-0.315586
2.227433,-0.329080
2.231340,-0.338320
2.235248,-0.339060
2.239156,-0.329790
2.243064,-0.313080
2.246971,-0.293856
2.250879,-0.275650
2.254787,-0.257627
2.258695,-0.234811
2.262603,-0.201607
2.266510,-0.156159
2.270418,-0.102352
2.274326,-0.048051
2.278234,-0.000947
2.282141,0.035050
2.286049,0.060709
2.289957,0.079679
2.293865,0.095721
2.297773,0.110892
2.301680,0.125460
2.305588,0.138912
2.309496,0.150894
2.313404,0.161401
2.317311,0.170392
2.321219,0.177497
2.325127,0.182211
2.329035,0.184409
2.332943,0.184634
2.336850,0.183865
2.340758,0.182917
2.344666,0.182032
2.348574,0.180953
2.352481,0.179333
2.356389,0.177063
2.360297,0.174289
2.364205,0.171250
2.368113,0.168200
2.372020,0.165465
2.375928,0.163465
2.379836,0.162522
2.383744,0.162514
2.387651,0.162660
2.391559,0.161695
2.395467,0.158442
2.399375,0.152510
2.403283,0.144709
2.407190,0.136871
2.411098,0.131049
2.415006,0.128484
2.418914,0.128935
2.422821,0.130813
2.426729,0.132008
2.430637,0.130885
2.434545,0.126854
2.438453,0.120359
2.442360,0.112484
2.446268,0.104540
2.450176,0.097822
2.454084,0.093382
2.457991,0.091652
2.461899,0.092056
2.465807,0.093057
2.469715,0.092952
2.473623,0.090999
2.477530,0.088019
2.481438,0.085811
2.485346,0.085667
2.489254,0.087081
2.493161,0.087747
2.497069,0.085074
2.500977,0.078265
2.504885,0.069437
2.508792,0.062813
2.512700,0.062338
2.516608,0.069223
2.520516,0.081092
2.524424,0.093361
2.528331,0.101938
2.532239,0.105417
2.536147,0.105363
2.540055,0.104716
2.543962,0.105643
2.547870,0.108365
2.551778,0.111525
2.555686,0.113476
2.559594,0.113330
2.563501,0.111153
2.567409,0.107467
2.571317,0.102761
2.575225,0.097460
2.579132,0.092240
2.583040,0.088187
2.586948,0.086446
2.590856,0.087479
2.594764,0.090492
2.598671,0.093580
2.602579,0.094713
2.606487,0.092980
2.610395,0.089154
2.614302,0.085128
2.618210,0.082605
2.622118,0.082069
2.626026,0.082731
2.629934,0.083376
2.633841,0.083361
2.637749,0.083057
2.641657,0.083487
2.645565,0.085476
2.649472,0.088932
2.653380,0.092723
2.657288,0.095151
2.661196,0.094710
2.665104,0.090689
2.669011,0.083519
2.672919,0.074930
2.676827,0.067917
2.680735,0.066288
2.684642,0.073463
2.688550,0.090629
2.692458,0.115107
2.696366,0.140307
2.700274,0.158095
2.704181,0.162883
2.708089,0.155104
2.711997,0.141559
2.715905,0.131773
2.719812,0.132217
2.723720,0.142034
2.727628,0.153272
2.731536,0.155772
2.735444,0.143610
2.739351,0.118823
2.743259,0.090013
2.747167,0.066937
2.751075,0.054825
2.754982,0.052030
2.758890,0.052102
2.762798,0.048467
2.766706,0.038520
2.770614,0.024837
2.774521,0.013273
2.778429,0.009479
2.782337,0.015848
2.786245,0.030231
2.790152,0.046803
2.794060,0.058584
2.797968,0.060521
2.801876,0.051615
2.805784,0.034862
2.809691,0.014968
2.813599,-0.004614
2.817507,-0.023071
2.821415,-0.040898
2.825322,-0.057006
2.829230,-0.066994
2.833138,-0.064414
2.837046,-0.043998
2.840953,-0.003482
2.844861,0.058547
2.848769,0.147383
2.852677,0.274350
2.856585,0.451578
2.860492,0.680216
2.864400,0.940050
2.868308,1.190735
2.872216,1.388528
2.876123,1.510529
2.880031,1.569712
2.883939,1.606627
2.887847,1.658284
2.891755,1.722419
2.895662,1.742793
2.899570,1.630911
2.903478,1.316285
2.907386,0.796444
2.911293,0.154574
2.915201,-0.469221
2.919109,-0.938744
2.923017,-1.180607
2.926925,-1.208993
2.930832,-1.105612
2.934740,-0.970600
2.938648,-0.874470
2.942556,-0.835874
2.946463,-0.830930
2.950371,-0.821033
2.954279,-0.778984
2.958187,-0.699870
2.962095,-0.596159
2.966002,-0.485944
2.969910,-0.384019
2.973818,-0.299456
2.977726,-0.237086
2.981633,-0.198509
2.985541,-0.181136
2.989449,-0.177263
2.993357,-0.175908
2.997265,-0.167557
3.001172,-0.148963
3.005080,-0.124483
3.008988,-0.102809
3.012896,-0.091251
3.016803,-0.091417
3.020711,-0.099033
3.024619,-0.107712
3.028527,-0.113782
3.032435,-0.118664
3.036342,-0.127125
3.040250,-0.142731
3.044158,-0.163859
3.048066,-0.183230
3.051973,-0.191494
3.055881,-0.182587
3.059789,-0.157420
3.063697,-0.123561
3.067605,-0.091210
3.071512,-0.068091
3.075420,-0.056389
3.079328,-0.053287
3.083236,-0.054140
3.087143,-0.055711
3.091051,-0.057265
3.094959,-0.059266
3.098867,-0.061310
3.102775,-0.061405
3.106682,-0.057323
3.110590,-0.048811
3.114498,-0.038505
3.118406,-0.030386
3.122313,-0.026725
3.126221,-0.026104
3.130129,-0.024579
3.134037,-0.019688
3.137945,-0.014308
3.141852,-0.016837
3.145760,-0.036448
3.149668,-0.075992
3.153576,-0.127564
3.157483,-0.174712
3.161391,-0.201013
3.165299,-0.200105
3.169207,-0.180530
3.173114,-0.161615
3.177022,-0.162350
3.180930,-0.190072
3.184838,-0.236197
3.188746,-0.281856
3.192653,-0.309864
3.196561,-0.315294
3.200469,-0.307840
3.204377,-0.304518
3.208284,-0.317634
3.212192,-0.346012
3.216100,-0.375284
3.220008,-0.386955
3.223916,-0.370092
3.227823,-0.327909
3.231731,-0.275227
3.235639,-0.229044
3.239547,-0.198832
3.243454,-0.182687
3.247362,-0.170860
3.251270,-0.153194
3.255178,-0.125089
3.259086,-0.088718
3.262993,-0.050088
3.266901,-0.015011
3.270809,0.013279
3.274717,0.034265
3.278624,0.049171
3.282532,0.060158
3.286440,0.069973
3.290348,0.081501
3.294256,0.096778
3.298163,0.115851
3.302071,0.136424
3.305979,0.154855
3.309887,0.168025
3.313794,0.174817
3.317702,0.176206
3.321610,0.174082
3.325518,0.169847
3.329426,0.163890
3.333333,0.156169
3.337241,0.147205
3.341149,0.138484
3.345057,0.131819
3.348964,0.128152
3.352872,0.126833
3.356780,0.126063
3.360688,0.124239
3.364596,0.121168
3.368503,0.118151
3.372411,0.116838
3.376319,0.117795
3.380227,0.119970
3.384134,0.121524
3.388042,0.121357
3.391950,0.120113
3.395858,0.119790
3.399766,0.122214
3.403673,0.127476
3.407581,0.133553
3.411489,0.137451
3.415397,0.137168
3.419304,0.133111
3.423212,0.128011
3.427120,0.125346
3.431028,0.127328
3.434936,0.133741
3.438843,0.142288
3.442751,0.150034
3.446659,0.154930
3.450567,0.156552
3.454474,0.155895
3.458382,0.154645
3.462290,0.154447
3.466198,0.156398
3.470106,0.160704
3.474013,0.166430
3.477921,0.171480
3.481829,0.173032
3.485737,0.168561
3.489644,0.157188
3.493552,0.140635
3.497460,0.123038
3.501368,0.109347
3.505275,0.103036
3.509183,0.104477
3.513091,0.111103
3.516999,0.119320
3.520907,0.126896
3.524814,0.134129
3.528722,0.142913
3.532630,0.154397
3.536538,0.167092
3.540445,0.177028
3.544353,0.180038
3.548261,0.174587
3.552169,0.163100
3.556077,0.150821
3.559984,0.142966
3.563892,0.141995
3.567800,0.146658
3.571708,0.153234
3.575615,0.157956
3.579523,0.159005
3.583431,0.156936
3.587339,0.153619
3.591247,0.150652
3.595154,0.148347
3.599062,0.145811
3.602970,0.141909
3.606878,0.136376
3.610785,0.130360
3.614693,0.125976
3.618601,0.125054
3.622509,0.127817
3.626417,0.132382
3.630324,0.135629
3.634232,0.135101
3.638140,0.130795
3.642048,0.125522
3.645955,0.123415
3.649863,0.127439
3.653771,0.137546
3.657679,0.150720
3.661587,0.162810
3.665494,0.170864
3.669402,0.174438
3.673310,0.175233
3.677218,0.175591
3.681125,0.177007
3.685033,0.179612
3.688941,0.182712
3.692849,0.185602
3.696757,0.187801
3.700664,0.188526
3.704572,0.186168
3.708480,0.178695
3.712388,0.165074
3.716295,0.146724
3.720203,0.127698
3.724111,0.113046
3.728019,0.106149
3.731927,0.106683
3.735834,0.110590
3.739742,0.112273
3.743650,0.107788
3.747558,0.097127
3.751465,0.084189
3.755373,0.074373
3.759281,0.071248
3.763189,0.074361
3.767097,0.079587
3.771004,0.081819
3.774912,0.078244
3.778820,0.070058
3.782728,0.061560
3.786635,0.057351
3.790543,0.059553
3.794451,0.066745
3.798359,0.075006
3.802267,0.080162
3.806174,0.079847
3.810082,0.074380
3.813990,0.066271
3.817898,0.058827
3.821805,0.054578
3.825713,0.054197
3.829621,0.056500
3.833529,0.060076
3.837436,0.066633
3.841344,0.084903
3.845252,0.132316
3.849160,0.231238
3.853068,0.398829
3.856975,0.634137
3.860883,0.910229
3.864791,1.178814
3.868699,1.388490
3.872606,1.508261
3.876514,1.542027
3.880422,1.522935
3.884330,1.488380
3.888238,1.450135
3.892145,1.379711
3.896053,1.221274
3.899961,0.927119
3.903869,0.494869
3.907776,-0.017466
3.911684,-0.509933
3.915592,-0.883499
3.919500,-1.083209
3.923408,-1.117707
3.927315,-1.046094
3.931223,-0.942549
3.935131,-0.860512
3.939039,-0.815256
3.942946,-0.790044
3.946854,-0.756784
3.950762,-0.696154
3.954670,-0.606439
3.958578,-0.499934
3.962485,-0.393341
3.966393,-0.299840
3.970301,-0.226470
3.974209,-0.175492
3.978116,-0.146321
3.982024,-0.135976
3.985932,-0.138558
3.989840,-0.145537
3.993748,-0.147789
3.997655,-0.138653
4.001563,-0.116287
4.005471,-0.084077
4.009379,-0.049017
4.013286,-0.019007
4.017194,-0.000205
4.021102,0.004821
4.025010,-0.002132
4.028918,-0.015312
4.032825,-0.026713
4.036733,-0.028889
4.040641,-0.018091
4.044549,0.003725
4.048456,0.029349
4.052364,0.049474
4.056272,0.057167
4.060180,0.051228
4.064088,0.036514
4.067995,0.021094
4.071903,0.012012
4.075811,0.012086
4.079719,0.019281
4.083626,0.028520
4.087534,0.034620
4.091442,0.034708
4.095350,0.029112
4.099258,0.020616
4.103165,0.012743
4.107073,0.008036
4.110981,0.007082
4.114889,0.008482
4.118796,0.009632
4.122704,0.007916
4.126612,0.001884
4.130520,-0.008111
4.134428,-0.020229
4.138335,-0.032385
4.142243,-0.043745
4.146151,-0.055414
4.150059,-0.069696
4.153966,-0.088319
4.157874,-0.110927
4.161782,-0.135048
4.165690,-0.157675
4.169597,-0.177347
4.173505,-0.195143
4.177413,-0.213743
4.181321,-0.235158
4.185229,-0.258743
4.189136,-0.280997
4.193044,-0.297377
4.196952,-0.304964
4.200860,-0.304217
4.204767,-0.298709
4.208675,-0.293100
4.212583,-0.290609
4.216491,-0.291413
4.220399,-0.292626
4.224306,-0.289615
4.228214,-0.277921
4.232122,-0.255056
4.236030,-0.221655
4.239937,-0.181575
4.243845,-0.140640
4.247753,-0.104151
4.251661,-0.074170
4.255569,-0.048252
4.259476,-0.020954
4.263384,0.012280
4.267292,0.051274
4.271200,0.090292
4.275107,0.121381
4.279015,0.139813
4.282923,0.147609
4.286831,0.152144
4.290739,0.160588
4.294646,0.174324
4.298554,0.187819
4.302462,0.193084
4.306370,0.186399
4.310277,0.172029
4.314185,0.159816
4.318093,0.158284
4.322001,0.168443
4.325909,0.183024
4.329816,0.191793
4.333724,0.188979
4.337632,0.177290
4.341540,0.165595
4.345447,0.162138
4.349355,0.168398
4.353263,0.178110
4.357171,0.182030
4.361079,0.174831
4.364986,0.159068
4.368894,0.143394
4.372802,0.136455
4.376710,0.140918
4.380617,0.151858
4.384525,0.160441
4.388433,0.160100
4.392341,0.150824
4.396249,0.138769
4.400156,0.131767
4.404064,0.133986
4.407972,0.143271
4.411880,0.152711
4.415787,0.155171
4.419695,0.147781
4.423603,0.133610
4.427511,0.119625
4.431419,0.112388
4.435326,0.114223
4.439234,0.122160
4.443142,0.130163
4.447050,0.133018
4.450957,0.129337
4.454865,0.121855
4.458773,0.115106
4.462681,0.112250
4.466589,0.113217
4.470496,0.115273
4.474404,0.115351
4.478312,0.112330
4.482220,0.107632
4.486127,0.103907
4.490035,0.103035
4.493943,0.105077
4.497851,0.108787
4.501758,0.112974
4.505666,0.117342
4.509574,0.122158
4.513482,0.127289
4.517390,0.131681
4.521297,0.133847
4.525205,0.132885
4.529113,0.129108
4.533021,0.123779
4.536928,0.118276
4.540836,0.113430
4.544744,0.109560
4.548652,0.106955
4.552560,0.106146
4.556467,0.107499
4.560375,0.110439
4.564283,0.113195
4.568191,0.113677
4.572098,0.111042
4.576006,0.106673
4.579914,0.103511
4.583822,0.104055
4.587730,0.108550
4.591637,0.114867
4.595545,0.120192
4.599453,0.123081
4.603361,0.124167
4.607268,0.125004
4.611176,0.126225
4.615084,0.126814
4.618992,0.125261
4.622900,0.121632
4.626807,0.118565
4.630715,0.120007
4.634623,0.128313
4.638531,0.141886
4.642438,0.155305
4.646346,0.162254
4.650254,0.159454
4.654162,0.148952
4.658070,0.137095
4.661977,0.130820
4.665885,0.133712
4.669793,0.144395
4.673701,0.158055
4.677608,0.169705
4.681516,0.176785
4.685424,0.179521
4.689332,0.179339
4.693240,0.177072
4.697147,0.172515
4.701055,0.165461
4.704963,0.156938
4.708871,0.149247
4.712778,0.144559
4.716686,0.143115
4.720594,0.142580
4.724502,0.139289
4.728410,0.130706
4.732317,0.117389
4.736225,0.102951
4.740133,0.091894
4.744041,0.086768
4.747948,0.086679
4.751856,0.088237
4.755764,0.088234
4.759672,0.086025
4.763580,0.083764
4.767487,0.084291
4.771395,0.088355
4.775303,0.093479
4.779211,0.095559
4.783118,0.092074
4.787026,0.084328
4.790934,0.076799
4.794842,0.073908
4.798750,0.076720
4.802657,0.082218
4.806565,0.085730
4.810473,0.084466
4.814381,0.079236
4.818288,0.073203
4.822196,0.069410
4.826104,0.070254
4.830012,0.080474
4.833919,0.111490
4.837827,0.182257
4.841735,0.312912
4.845643,0.512497
4.849551,0.767624
4.853458,1.040568
4.857366,1.280653
4.861274,1.444304
4.865182,1.512448
4.869089,1.494335
4.872997,1.414988
4.876905,1.294348
4.880813,1.132270
4.884721,0.910098
4.888628,0.608501
4.892536,0.229938
4.896444,-0.189617
4.900352,-0.588368
4.904259,-0.902151
4.908167,-1.090286
4.912075,-1.149663
4.915983,-1.110842
4.919891,-1.020613
4.923798,-0.921813
4.927706,-0.840132
4.931614,-0.781470
4.935522,-0.737257
4.939429,-0.692662
4.943337,-0.633917
4.947245,-0.553446
4.951153,-0.452707
4.955061,-0.342277
4.958968,-0.238466
4.962876,-0.156910
4.966784,-0.105742
4.970692,-0.082081
4.974599,-0.074097
4.978507,-0.067614
4.982415,-0.053308
4.986323,-0.030315
4.990231,-0.004566
4.994138,0.016370
4.998046,0.028242
5.001954,0.031915
5.005862,0.031657
5.009769,0.031848
5.013677,0.034591
5.017585,0.039453
5.021493,0.044787
5.025401,0.049181
5.029308,0.051999
5.033216,0.053078
5.037124,0.052409
5.041032,0.050383
5.044939,0.048338
5.048847,0.048556
5.052755,0.053182
5.056663,0.062558
5.060571,0.074244
5.064478,0.083775
5.068386,0.087003
5.072294,0.082630
5.076202,0.073181
5.080109,0.063603
5.084017,0.058247
5.087925,0.058226
5.091833,0.060916
5.095741,0.061986
5.099648,0.058528
5.103556,0.051054
5.107464,0.042913
5.111372,0.037572
5.115279,0.035825
5.119187,0.035092
5.123095,0.031367
5.127003,0.022286
5.130911,0.008879
5.134818,-0.005379
5.138726,-0.017465
5.142634,-0.027336
5.146542,-0.038033
5.150449,-0.053260
5.154357,-0.074340
5.158265,-0.098961
5.162173,-0.122681
5.166081,-0.141998
5.169988,-0.156567
5.173896,-0.168904
5.177804,-0.181972
5.181712,-0.196737
5.185619,-0.211658
5.189527,-0.224356
5.193435,-0.233838
5.197343,-0.241244
5.201250,-0.248446
5.205158,-0.255759
5.209066,-0.260791
5.212974,-0.259493
5.216882,-0.248660
5.220789,-0.227941
5.224697,-0.199904
5.228605,-0.168287
5.232513,-0.135918
5.236420,-0.103887
5.240328,-0.072258
5.244236,-0.041353
5.248144,-0.012334
5.252052,0.013343
5.255959,0.035019
5.259867,0.053503
5.263775,0.070764
5.267683,0.088758
5.271590,0.108104
5.275498,0.127468
5.279406,0.144167
5.283314,0.155737
5.287222,0.161482
5.291129,0.162957
5.295037,0.162999
5.298945,0.164022
5.302853,0.166748
5.306760,0.170211
5.310668,0.172837
5.314576,0.173701
5.318484,0.173085
5.322392,0.172121
5.326299,0.171921
5.330207,0.172831
5.334115,0.174220
5.338023,0.174891
5.341930,0.173842
5.345838,0.170915
5.349746,0.166924
5.353654,0.163201
5.357562,0.160865
5.361469,0.160283
5.365377,0.160971
5.369285,0.161874
5.373193,0.161818
5.377100,0.159935
5.381008,0.155969
5.384916,0.150405
5.388824,0.144321
5.392732,0.138986
5.396639,0.135332
5.400547,0.133592
5.404455,0.133285
5.408363,0.133585
5.412270,0.133812
5.416178,0.133742
5.420086,0.133560
5.423994,0.133543
5.427902,0.133724
5.431809,0.133772
5.435717,0.133162
5.439625,0.131485
5.443533,0.128658
5.447440,0.124906
5.451348,0.120614
5.455256,0.116246
5.459164,0.112382
5.463072,0.109704
5.466979,0.108783
5.470887,0.109762
5.474795,0.112189
5.478703,0.115202
5.482610,0.117975
5.486518,0.120135
5.490426,0.121855
5.494334,0.123595
5.498242,0.125682
5.502149,0.128065
5.506057,0.130374
5.509965,0.132158
5.513873,0.133080
5.517780,0.132955
5.521688,0.131766
5.525596,0.129776
5.529504,0.127630
5.533411,0.126234
5.537319,0.126304
5.541227,0.127863
5.545135,0.130079
5.549043,0.131662
5.552950,0.131624
5.556858,0.129906
5.560766,0.127448
5.564674,0.125637
5.568581,0.125482
5.572489,0.127030
5.576397,0.129365
5.580305,0.131150
5.584213,0.131359
5.588120,0.129751
5.592028,0.126887
5.595936,0.123733
5.599844,0.121153
5.603751,0.119589
5.607659,0.119059
5.611567,0.119420
5.615475,0.120637
5.619383,0.122854
5.623290,0.126200
5.627198,0.130498
5.631106,0.135142
5.635014,0.139292
5.638921,0.142324
5.642829,0.144218
5.646737,0.145617
5.650645,0.147494
5.654553,0.150651
5.658460,0.155378
5.662368,0.161451
5.666276,0.168386
5.670184,0.175679
5.674091,0.182830
5.677999,0.189134
5.681907,0.193477
5.685815,0.194455
5.689723,0.190951
5.693630,0.182913
5.697538,0.171790
5.701446,0.160198
5.705354,0.150827
5.709261,0.145155
5.713169,0.142695
5.717077,0.141256
5.720985,0.138151
5.724893,0.131719
5.728800,0.122267
5.732708,0.111840
5.736616,0.102944
5.740524,0.097088
5.744431,0.094176
5.748339,0.093078
5.752247,0.092733
5.756155,0.092757
5.760063,0.093141
5.763970,0.093600
5.767878,0.093463
5.771786,0.092311
5.775694,0.090624
5.779601,0.089588
5.783509,0.090071
5.787417,0.091676
5.791325,0.092902
5.795233,0.092480
5.799140,0.090718
5.803048,0.089463
5.806956,0.090408
5.810864,0.093302
5.814771,0.096507
5.818679,0.100908
5.822587,0.115102
5.826495,0.157283
5.830403,0.249961
5.834310,0.408060
5.838218,0.626447
5.842126,0.875157
5.846034,1.107079
5.849941,1.275126
5.853849,1.349318
5.857757,1.323852
5.861665,1.210920
5.865572,1.027225
5.869480,0.783975
5.873388,0.487837
5.877296,0.151165
5.881204,-0.198087
5.885111,-0.516777
5.889019,-0.759841
5.892927,-0.899004
5.896835,-0.934895
5.900742,-0.894599
5.904650,-0.816554
5.908558,-0.732820
5.912466,-0.659349
5.916374,-0.597998
5.920281,-0.545369
5.924189,-0.499873
5.928097,-0.461895
5.932005,-0.429060
5.935912,-0.393041
5.939820,-0.342633
5.943728,-0.271671
5.947636,-0.185447
5.951544,-0.099749
5.955451,-0.032266
5.959359,0.007800
5.963267,0.024497
5.967175,0.031098
5.971082,0.040626
5.974990,0.057923
5.978898,0.078485
5.982806,0.093880
5.986714,0.098887
5.990621,0.094974
5.994529,0.088293
5.998437,0.084714
6.002345,0.086207
6.006252,0.090991
6.010160,0.096421
6.014068,0.101649
6.017976,0.107842
6.021884,0.116226
6.025791,0.126079
6.029699,0.134582
6.033607,0.138661
6.037515,0.137248
6.041422,0.132135
6.045330,0.126825
6.049238,0.124365
6.053146,0.125741
6.057054,0.129826
6.060961,0.134633
6.064869,0.138750
6.068777,0.141857
6.072685,0.144121
6.076592,0.145241
6.080500,0.144218
6.084408,0.140236
6.088316,0.133949
6.092224,0.127974
6.096131,0.125861
6.100039,0.129991
6.103947,0.139730
6.107855,0.151170
6.111762,0.158780
6.115670,0.158030
6.119578,0.147439
6.123486,0.128965
6.127394,0.106771
6.131301,0.085382
6.135209,0.068259
6.139117,0.057177
6.143025,0.052119
6.146932,0.051264
6.150840,0.051063
6.154748,0.046856
6.158656,0.034448
6.162564,0.012248
6.166471,-0.017286
6.170379,-0.048208
6.174287,-0.073872
6.178195,-0.090516
6.182102,-0.099330
6.186010,-0.105430
6.189918,-0.114215
6.193826,-0.127573
6.197733,-0.142598
6.201641,-0.153721
6.205549,-0.156611
6.209457,-0.150929
6.213365,-0.140020
6.217272,-0.128065
6.221180,-0.117051
6.225088,-0.105807
6.228996,-0.091580
6.232903,-0.072671
6.236811,-0.050015
6.240719,-0.026625
6.244627,-0.005543
6.248535,0.012001
6.252442,0.026885
6.256350,0.040839
6.260258,0.054809
6.264166,0.068283
6.268073,0.079999
6.271981,0.089273
6.275889,0.096650
6.279797,0.103228
6.283705,0.109270
6.287612,0.113457
6.291520,0.113740
6.295428,0.109289
6.299336,0.101913
6.303243,0.095505
6.307151,0.093650
6.311059,0.097107
6.314967,0.103148
6.318875,0.107336
6.322782,0.106430
6.326690,0.100281
6.330598,0.091495
6.334506,0.083344
6.338413,0.077616
6.342321,0.073869
6.346229,0.070408
6.350137,0.066023
6.354045,0.061114
6.357952,0.057359
6.361860,0.056229
6.365768,0.057546
6.369676,0.059292
6.373583,0.058884
6.377491,0.055006
6.381399,0.048594
6.385307,0.042223
6.389215,0.038325
6.393122,0.037562
6.397030,0.038472
6.400938,0.038605
6.404846,0.036322
6.408753,0.032047
6.412661,0.028142
6.416569,0.027446
6.420477,0.031402
6.424385,0.038960
6.428292,0.046989
6.432200,0.051984
6.436108,0.052037
6.440016,0.047845
6.443923,0.042143
6.447831,0.037987
6.451739,0.037006
6.455647,0.038702
6.459555,0.041087
6.463462,0.042046
6.467370,0.040530
6.471278,0.036988
6.475186,0.032997
6.479093,0.030452
6.483001,0.030711
6.486909,0.034040
6.490817,0.039531
6.494725,0.045498
6.498632,0.050171
6.502540,0.052421
6.506448,0.052245
6.510356,0.050792
6.514263,0.049845
6.518171,0.050927
6.522079,0.054470
6.525987,0.059555
6.529894,0.064399
6.533802,0.067324
6.537710,0.067658
6.541618,0.066090
6.545526,0.064281
6.549433,0.063945
6.553341,0.065874
6.557249,0.069477
6.561157,0.073125
6.565064,0.075115
6.568972,0.074685
6.572880,0.072448
6.576788,0.069982
6.580696,0.068827
6.584603,0.069556
6.588511,0.071497
6.592419,0.073284
6.596327,0.073832
6.600234,0.073081
6.604142,0.072044
6.608050,0.072152
6.611958,0.074294
6.615866,0.078194
6.619773,0.082557
6.623681,0.085975
6.627589,0.087986
6.631497,0.089503
6.635404,0.092251
6.639312,0.097545
6.643220,0.105185
6.647128,0.113188
6.651036,0.118573
6.654943,0.118801
6.658851,0.113092
6.662759,0.102893
6.666667,0.091219
6.670574,0.081201
6.674482,0.074596
6.678390,0.071024
6.682298,0.068359
6.686206,0.064075
6.690113,0.056809
6.694021,0.047217
6.697929,0.037579
6.701837,0.030360
6.705744,0.026651
6.709652,0.025519
6.713560,0.024736
6.717468,0.022412
6.721376,0.018325
6.725283,0.013946
6.729191,0.011102
6.733099,0.010398
6.737007,0.010788
6.740914,0.010703
6.744822,0.009702
6.748730,0.009021
6.752638,0.010355
6.756546,0.013938
6.760453,0.017849
6.764361,0.019467
6.768269,0.017982
6.772177,0.015546
6.776084,0.015601
6.779992,0.019515
6.783900,0.024838
6.787808,0.027975
6.791716,0.030742
6.795623,0.046206
6.799531,0.097986
6.803439,0.210497
6.807347,0.394005
6.811254,0.633415
6.815162,0.888974
6.819070,1.110204
6.822978,1.255523
6.826886,1.305822
6.830793,1.264176
6.834701,1.143692
6.838609,0.953903
6.842517,0.696808
6.846424,0.375642
6.850332,0.008840
6.854240,-0.363297
6.858148,-0.687029
6.862055,-0.915415
6.865963,-1.028008
6.869871,-1.037463
6.873779,-0.979329
6.877687,-0.892576
6.881594,-0.803686
6.885502,-0.722904
6.889410,-0.651370
6.893318,-0.590275
6.897225,-0.543572
6.901133,-0.512970
6.905041,-0.491450
6.908949,-0.463089
6.912857,-0.411460
6.916764,-0.331120
6.920672,-0.233322
6.924580,-0.140878
6.928488,-0.075160
6.932395,-0.044084
6.936303,-0.039111
6.940211,-0.042580
6.944119,-0.039440
6.948027,-0.025188
6.951934,-0.005501
6.955842,0.010543
6.959750,0.017786
6.963658,0.017740
6.967565,0.015932
6.971473,0.017025
6.975381,0.021804
6.979289,0.027825
6.983197,0.032330
6.987104,0.034610
6.991012,0.036035
6.994920,0.038293
6.998828,0.041732
7.002735,0.045249
7.006643,0.047552
7.010551,0.048459
7.014459,0.049080
7.018367,0.050817
7.022274,0.054115
7.026182,0.057989
7.030090,0.060681
7.033998,0.060911
7.037905,0.058773
7.041813,0.055591
7.045721,0.052882
7.049629,0.051256
7.053537,0.050102
7.057444,0.048215
7.061352,0.044809
7.065260,0.040045
7.069168,0.034716
7.073075,0.029463
7.076983,0.024216
7.080891,0.018259
7.084799,0.010747
7.088707,0.001201
7.092614,-0.010328
7.096522,-0.023399
7.100430,-0.037465
7.104338,-0.052099
7.108245,-0.067072
7.112153,-0.082294
7.116061,-0.097744
7.119969,-0.113529
7.123877,-0.130033
7.127784,-0.147948
7.131692,-0.167970
7.135600,-0.190284
7.139508,-0.214171
7.143415,-0.238150
7.147323,-0.260672
7.151231,-0.280945
7.155139,-0.299226
7.159047,-0.316210
7.162954,-0.331887
7.166862,-0.344751
7.170770,-0.352146
7.174678,-0.351697
7.178585,-0.342854
7.182493,-0.327349
7.186401,-0.308132
7.190309,-0.287523
7.194216,-0.265957
7.198124,-0.242237
7.202032,-0.214989
7.205940,-0.184175
7.209848,-0.151526
7.213755,-0.119687
7.217663,-0.090787
7.221571,-0.065532
7.225479,-0.043437
7.229386,-0.023914
7.233294,-0.007225
7.237202,0.005533
7.241110,0.013454
7.245018,0.017056
7.248925,0.018710
7.252833,0.021787
7.256741,0.028946
7.260649,0.040585
7.264556,0.054495
7.268464,0.067001
7.272372,0.074956
7.276280,0.077343
7.280188,0.075574
7.284095,0.072430
7.288003,0.070426
7.291911,0.070576
7.295819,0.072173
7.299726,0.073600
7.303634,0.073553
7.307542,0.071887
7.311450,0.069542
7.315358,0.067687
7.319265,0.066731
7.323173,0.065925
7.327081,0.063845
7.330989,0.059439
7.334896,0.052939
7.338804,0.045953
7.342712,0.040592
7.346620,0.038150
7.350528,0.038293
7.354435,0.039368
7.358343,0.039625
7.362251,0.038444
7.366159,0.036608
7.370066,0.035455
7.373974,0.035612
7.377882,0.036374
7.381790,0.036243
7.385698,0.034170
7.389605,0.030492
7.393513,0.026796
7.397421,0.024818
7.401329,0.025247
7.405236,0.027286
7.409144,0.029234
7.413052,0.029589
7.416960,0.027894
7.420868,0.024913
7.424775,0.022179
7.428683,0.021294
7.432591,0.023328
7.436499,0.028466
7.440406,0.035959
7.444314,0.044320
7.448222,0.051721
7.452130,0.056511
7.456038,0.057773
7.459945,0.055773
7.463853,0.051999
7.467761,0.048560
7.471669,0.047095
7.475576,0.047851
7.479484,0.049644
7.483392,0.050810
7.487300,0.050489
7.491208,0.049238
7.495115,0.048496
7.499023,0.049316
7.502931,0.051431
7.506839,0.053419
7.510746,0.053876
7.514654,0.052632
7.518562,0.051000
7.522470,0.050809
7.526377,0.052963
7.530285,0.056624
7.534193,0.059584
7.538101,0.059560
7.542009,0.055548
7.545916,0.048468
7.549824,0.040744
7.553732,0.035047
7.557640,0.032886
7.561547,0.033880
7.565455,0.036208
7.569363,0.037981
7.573271,0.038629
7.577179,0.039259
7.581086,0.041646
7.584994,0.046599
7.588902,0.052979
7.592810,0.058236
7.596717,0.060129
7.600625,0.058364
7.604533,0.054971
7.608441,0.053176
7.612349,0.055548
7.616256,0.062638
7.620164,0.072843
7.624072,0.083359
7.627980,0.091451
7.631887,0.095330
7.635795,0.094420
7.639703,0.089280
7.643611,0.081416
7.647519,0.072970
7.651426,0.066104
7.655334,0.062149
7.659242,0.060912
7.663150,0.060649
7.667057,0.058876
7.670965,0.053642
7.674873,0.044530
7.678781,0.032838
7.682689,0.020877
7.686596,0.010868
7.690504,0.004029
7.694412,0.000283
7.698320,-0.001373
7.702227,-0.002119
7.706135,-0.002661
7.710043,-0.003097
7.713951,-0.003298
7.717859,-0.003378
7.721766,-0.003736
7.725674,-0.004605
7.729582,-0.005683
7.733490,-0.006431
7.737397,-0.006918
7.741305,-0.008277
7.745213,-0.011945
7.749121,-0.018000
7.753029,-0.024125
7.756936,-0.026681
7.760844,-0.023562
7.764752,-0.016365
7.768660,-0.008831
7.772567,-0.000908
7.776475,0.018074
7.780383,0.070915
7.784291,0.184341
7.788199,0.373051
7.792106,0.624930
7.796014,0.898232
7.799922,1.135515
7.803830,1.288194
7.807737,1.337324
7.811645,1.297206
7.815553,1.199211
7.819461,1.066713
7.823369,0.898629
7.827276,0.673483
7.831184,0.371581
7.835092,-0.000119
7.839000,-0.398306
7.842907,-0.756575
7.846815,-1.014062
7.850723,-1.141952
7.854631,-1.152444
7.858538,-1.086884
7.862446,-0.992758
7.866354,-0.904226
7.870262,-0.835558
7.874170,-0.786434
7.878077,-0.750919
7.881985,-0.722465
7.885893,-0.693543
7.889801,-0.654181
7.893708,-0.594140
7.897616,-0.508940
7.901524,-0.405136
7.905432,-0.299623
7.909340,-0.211998
7.913247,-0.154500
7.917155,-0.126245
7.921063,-0.115520
7.924971,-0.108135
7.928878,-0.095749
7.932786,-0.078760
7.936694,-0.062872
7.940602,-0.053005
7.944510,-0.049386
7.948417,-0.048113
7.952325,-0.044773
7.956233,-0.037771
7.960141,-0.028908
7.964048,-0.021305
7.967956,-0.016763
7.971864,-0.014693
7.975772,-0.013141
7.979680,-0.010707
7.983587,-0.007621
7.987495,-0.005242
7.991403,-0.004666
7.995311,-0.005744
7.999218,-0.007249
8.003126,-0.007851
8.007034,-0.007009
8.010942,-0.005163
8.014850,-0.003295
8.018757,-0.002328
8.022665,-0.002731
8.026573,-0.004416
8.030481,-0.006784
8.034388,-0.008901
8.038296,-0.009866
8.042204,-0.009310
8.046112,-0.007780
8.050020,-0.006741
8.053927,-0.008130
8.057835,-0.013641
8.061743,-0.024009
8.065651,-0.038596
8.069558,-0.055545
8.073466,-0.072539
8.077374,-0.087878
8.081282,-0.101350
8.085190,-0.114412
8.089097,-0.129449
8.093005,-0.148365
8.096913,-0.171263
8.100821,-0.196143
8.104728,-0.220054
8.108636,-0.241131
8.112544,-0.260123
8.116452,-0.280166
8.120360,-0.304676
8.124267,-0.334645
8.128175,-0.367265
8.132083,-0.397039
8.135991,-0.418784
8.139898,-0.430530
8.143806,-0.434295
8.147714,-0.434248
8.151622,-0.433568
8.155530,-0.432182
8.159437,-0.426814
8.163345,-0.413190
8.167253,-0.388867
8.171161,-0.354939
8.175068,-0.315668
8.178976,-0.276384
8.182884,-0.240976
8.186792,-0.210415
8.190699,-0.183045
8.194607,-0.156277
8.198515,-0.128509
8.202423,-0.100124
8.206331,-0.073095
8.210238,-0.049676
8.214146,-0.031156
8.218054,-0.017424
8.221962,-0.007384
8.225869,0.000274
8.229777,0.006553
8.233685,0.012048
8.237593,0.017093
8.241501,0.021829
8.245408,0.026114
8.249316,0.029439
8.253224,0.031118
8.257132,0.030799
8.261039,0.028987
8.264947,0.027087
8.268855,0.026712
8.272763,0.028587
8.276671,0.031848
8.280578,0.034320
8.284486,0.033732
8.288394,0.029153
8.292302,0.021679
8.296209,0.013870
8.300117,0.008234
8.304025,0.005732
8.307933,0.005268
8.311841,0.004465
8.315748,0.001170
8.319656,-0.005250
8.323564,-0.013572
8.327472,-0.021448
8.331379,-0.026772
8.335287,-0.028878
8.339195,-0.028876
8.343103,-0.028913
8.347011,-0.030829
8.350918,-0.035048
8.354826,-0.040413
8.358734,-0.045016
8.362642,-0.047451
8.366549,-0.047671
8.370457,-0.046935
8.374365,-0.046909
8.378273,-0.048486
8.382181,-0.051082
8.386088,-0.052933
8.389996,-0.052300
8.393904,-0.048842
8.397812,-0.044136
8.401719,-0.040830
8.405627,-0.040930
8.409535,-0.044409
8.413443,-0.049124
8.417351,-0.052077
8.421258,-0.051184
8.425166,-0.046433
8.429074,-0.039782
8.432982,-0.033951
8.436889,-0.030864
8.440797,-0.030680
8.444705,-0.031928
8.448613,-0.032592
8.452521,-0.031409
8.456428,-0.028613
8.460336,-0.025681
8.464244,-0.024275
8.468152,-0.025056
8.472059,-0.027192
8.475967,-0.028950
8.479875,-0.029001
8.483783,-0.027507
8.487691,-0.026121
8.491598,-0.026834
8.495506,-0.030462
8.499414,-0.035913
8.503322,-0.040778
8.507229,-0.042833
8.511137,-0.041424
8.515045,-0.037799
8.518953,-0.034247
8.522860,-0.032701
8.526768,-0.033719
8.530676,-0.036420
8.534584,-0.039186
8.538492,-0.040516
8.542399,-0.039494
8.546307,-0.035834
8.550215,-0.029811
8.554123,-0.022283
8.558030,-0.014690
8.561938,-0.008733
8.565846,-0.005681
8.569754,-0.005695
8.573662,-0.007706
8.577569,-0.009995
8.581477,-0.011065
8.585385,-0.010165
8.589293,-0.007160
8.593200,-0.002074
8.597108,0.005086
8.601016,0.013906
8.604924,0.022860
8.608832,0.029134
8.612739,0.029525
8.616647,0.022172
8.620555,0.008047
8.624463,-0.008953
8.628370,-0.023632
8.632278,-0.032081
8.636186,-0.033689
8.640094,-0.031371
8.644002,-0.029824
8.647909,-0.032862
8.651817,-0.041455
8.655725,-0.053590
8.659633,-0.065811
8.663540,-0.075281
8.667448,-0.081011
8.671356,-0.083664
8.675264,-0.084363
8.679172,-0.083608
8.683079,-0.081191
8.686987,-0.077081
8.690895,-0.072373
8.694803,-0.069238
8.698710,-0.069689
8.702618,-0.074016
8.706526,-0.080190
8.710434,-0.084913
8.714342,-0.085770
8.718249,-0.082998
8.722157,-0.079434
8.726065,-0.078385
8.729973,-0.080861
8.733880,-0.084454
8.737788,-0.085160
8.741696,-0.080825
8.745604,-0.072674
8.749512,-0.062011
8.753419,-0.043055
8.757327,0.002407
8.761235,0.101754
8.765143,0.277534
8.769050,0.529070
8.772958,0.822015
8.776866,1.096081
8.780774,1.290434
8.784682,1.373301
8.788589,1.356735
8.792497,1.284895
8.796405,1.201248
8.800313,1.115597
8.804220,0.994009
8.808128,0.780659
8.812036,0.439074
8.815944,-0.013771
8.819852,-0.503550
8.823759,-0.928749
8.827667,-1.207172
8.831575,-1.311413
8.835483,-1.274171
8.839390,-1.163850
8.843298,-1.048049
8.847206,-0.966507
8.851114,-0.925109
8.855021,-0.907581
8.858929,-0.892350
8.862837,-0.863520
8.866745,-0.813165
8.870653,-0.739289
8.874560,-0.644694
8.878468,-0.537863
8.882376,-0.432948
8.886284,-0.345925
8.890191,-0.287739
8.894099,-0.258797
8.898007,-0.249097
8.901915,-0.244363
8.905823,-0.234129
8.909730,-0.216381
8.913638,-0.196164
8.917546,-0.180068
8.921454,-0.171081
8.925361,-0.167305
8.929269,-0.164582
8.933177,-0.160198
8.937085,-0.154530
8.940993,-0.149718
8.944900,-0.147034
8.948808,-0.145442
8.952716,-0.142478
8.956624,-0.136425
8.960531,-0.127725
8.964439,-0.118521
8.968347,-0.110927
8.972255,-0.105670
8.976163,-0.102157
8.980070,-0.099602
8.983978,-0.097985
8.987886,-0.097947
8.991794,-0.099871
8.995701,-0.103114
8.999609,-0.106154
9.003517,-0.107544
9.007425,-0.106909
9.011333,-0.105250
9.015240,-0.104367
9.019148,-0.105847
9.023056,-0.110247
9.026964,-0.116892
9.030871,-0.124337
9.034779,-0.131224
9.038687,-0.137095
9.042595,-0.142716
9.046503,-0.149739
9.050410,-0.159911
9.054318,-0.174274
9.058226,-0.192736
9.062134,-0.214110
9.066041,-0.236571
9.069949,-0.258395
9.073857,-0.278756
9.077765,-0.298217
9.081673,-0.318499
9.085580,-0.341465
9.089488,-0.367856
9.093396,-0.396665
9.097304,-0.425625
9.101211,-0.452462
9.105119,-0.475952
9.109027,-0.496071
9.112935,-0.513259
9.116843,-0.527499
9.120750,-0.537948
9.124658,-0.543350
9.128566,-0.542732
9.132474,-0.535761
9.136381,-0.522523
9.140289,-0.503169
9.144197,-0.477955
9.148105,-0.447692
9.152013,-0.414048
9.155920,-0.379190
9.159828,-0.344886
9.163736,-0.311782
9.167644,-0.279519
9.171551,-0.247580
9.175459,-0.216144
9.179367,-0.186234
9.183275,-0.159119
9.187182,-0.135558
9.191090,-0.115533
9.194998,-0.098588
9.198906,-0.084374
9.202814,-0.072856
9.206721,-0.064051
9.210629,-0.057601
9.214537,-0.052690
9.218445,-0.048459
9.222352,-0.044618
9.226260,-0.041616
9.230168,-0.040039
9.234076,-0.039629
9.237984,-0.038907
9.241891,-0.036101
9.245799,-0.030936
9.249707,-0.025804
9.253615,-0.024967
9.257522,-0.031932
9.261430,-0.046814
9.265338,-0.065829
9.269246,-0.083508
9.273154,-0.096034
9.277061,-0.103059
9.280969,-0.106609
9.284877,-0.108134
9.288785,-0.106368
9.292692,-0.098018
9.296600,-0.080919
9.300508,-0.057112
9.304416,-0.033169
9.308324,-0.017077
9.312231,-0.013639
9.316139,-0.021612
9.320047,-0.034624
9.323955,-0.045271
9.327862,-0.049573
9.331770,-0.048815
9.335678,-0.047808
9.339586,-0.051121
9.343494,-0.060038
9.347401,-0.072123
9.351309,-0.083209
9.355217,-0.090082
9.359125,-0.092031
9.363032,-0.090664
9.366940,-0.088537
9.370848,-0.087687
9.374756,-0.088811
9.378664,-0.091259
9.382571,-0.093592
9.386479,-0.094340
9.390387,-0.092687
9.394295,-0.088864
9.398202,-0.084163
9.402110,-0.080487
9.406018,-0.079518
9.409926,-0.081837
9.413834,-0.086512
9.417741,-0.091554
9.421649,-0.095124
9.425557,-0.096737
9.429465,-0.097573
9.433372,-0.099544
9.437280,-0.103710
9.441188,-0.109191
9.445096,-0.113429
9.449004,-0.113685
9.452911,-0.108768
9.456819,-0.099850
9.460727,-0.089885
9.464635,-0.082075
9.468542,-0.078369
9.472450,-0.078805
9.476358,-0.081892
9.480266,-0.085619
9.484174,-0.088472
9.488081,-0.089922
9.491989,-0.090301
9.495897,-0.090270
9.499805,-0.090291
9.503712,-0.090428
9.507620,-0.090524
9.511528,-0.090535
9.515436,-0.090719
9.519343,-0.091496
9.523251,-0.093085
9.527159,-0.095204
9.531067,-0.097085
9.534975,-0.097821
9.538882,-0.096818
9.542790,-0.094113
9.546698,-0.090391
9.550606,-0.086697
9.554513,-0.083914
9.558421,-0.082250
9.562329,-0.081061
9.566237,-0.079218
9.570145,-0.075889
9.574052,-0.071243
9.577960,-0.066515
9.581868,-0.063263
9.585776,-0.062213
9.589683,-0.062573
9.593591,-0.062449
9.597499,-0.060259
9.601407,-0.056197
9.605315,-0.052597
9.609222,-0.052730
9.613130,-0.058707
9.617038,-0.069899
9.620946,-0.083043
9.624853,-0.094058
9.628761,-0.100406
9.632669,-0.102465
9.636577,-0.103094
9.640485,-0.105791
9.644392,-0.112636
9.648300,-0.123207
9.652208,-0.134927
9.656116,-0.144541
9.660023,-0.149862
9.663931,-0.150864
9.667839,-0.149525
9.671747,-0.148545
9.675655,-0.149716
9.679562,-0.152982
9.683470,-0.156789
9.687378,-0.159406
9.691286,-0.160209
9.695193,-0.159884
9.699101,-0.159495
9.703009,-0.159340
9.706917,-0.158770
9.710825,-0.157166
9.714732,-0.155066
9.718640,-0.154144
9.722548,-0.155839
9.726456,-0.159847
9.730363,-0.163969
9.734271,-0.165492
9.738179,-0.162355
9.742087,-0.151842
9.745995,-0.126568
9.749902,-0.070979
9.753810,0.036625
9.757718,0.214011
9.761626,0.460540
9.765533,0.747599
9.769441,1.022996
9.773349,1.230673
9.777257,1.336168
9.781165,1.342034
9.785072,1.281764
9.788980,1.194182
9.792888,1.094170
9.796796,0.959749
9.800703,0.746030
9.804611,0.418829
9.808519,-0.013187
9.812427,-0.489359
9.816335,-0.918433
9.820242,-1.218876
9.824150,-1.354773
9.828058,-1.347297
9.831966,-1.257249
9.835873,-1.151252
9.839781,-1.071821
9.843689,-1.026182
9.847597,-0.995442
9.851504,-0.954124
9.855412,-0.886862
9.859320,-0.794388
9.863228,-0.689294
9.867136,-0.587528
9.871043,-0.501501
9.874951,-0.437237
9.878859,-0.394678
9.882767,-0.369310
9.886674,-0.354176
9.890582,-0.342226
9.894490,-0.328729
9.898398,-0.312713
9.902306,-0.296415
9.906213,-0.282937
9.910121,-0.273690
9.914029,-0.267414
9.917937,-0.261390
9.921844,-0.253746
9.925752,-0.244991
9.929660,-0.237562
9.933568,-0.233749
9.937476,-0.233598
9.941383,-0.234489
9.945291,-0.232791
9.949199,-0.226411
9.953107,-0.216320
9.957014,-0.205983
9.960922,-0.199158
9.964830,-0.197619
9.968738,-0.200227
9.972646,-0.203754
9.976553,-0.204826
9.980461,-0.201787
9.984369,-0.195471
9.988277,-0.188495
9.992184,-0.183595
9.996092,-0.182007
10.000000,-0.182827
