time,ecg
0.000000,-0.229439
0.003908,-0.235335
0.007816,-0.239409
0.011723,-0.240715
0.015631,-0.239706
0.019539,-0.238106
0.023447,-0.237939
0.027354,-0.240016
0.031262,-0.242777
0.035170,-0.242647
0.039078,-0.236320
0.042986,-0.223592
0.046893,-0.207986
0.050801,-0.193012
0.054709,-0.175233
0.058617,-0.139459
0.062524,-0.062691
0.066432,0.070590
0.070340,0.247649
0.074248,0.414596
0.078156,0.484796
0.082063,0.372025
0.085971,0.036045
0.089879,-0.483363
0.093787,-1.066293
0.097694,-1.552710
0.101602,-1.806217
0.105510,-1.770202
0.109418,-1.487561
0.113326,-1.074718
0.117233,-0.665487
0.121141,-0.355390
0.125049,-0.173712
0.128957,-0.092284
0.132864,-0.058759
0.136772,-0.031172
0.140680,0.005139
0.144588,0.042474
0.148496,0.067660
0.152403,0.076247
0.156311,0.075255
0.160219,0.075983
0.164127,0.085039
0.168034,0.100899
0.171942,0.117309
0.175850,0.129344
0.179758,0.136919
0.183665,0.143731
0.187573,0.153603
0.191481,0.167706
0.195389,0.184569
0.199297,0.202090
0.203204,0.219356
0.207112,0.236836
0.211020,0.255266
0.214928,0.274619
0.218835,0.294109
0.222743,0.313021
0.226651,0.331403
0.230559,0.349973
0.234467,0.369407
0.238374,0.389717
0.242282,0.410263
0.246190,0.430303
0.250098,0.449519
0.254005,0.468116
0.257913,0.486451
0.261821,0.504489
0.265729,0.521407
0.269637,0.535499
0.273544,0.544483
0.277452,0.546141
0.281360,0.539133
0.285268,0.523603
0.289175,0.501215
0.293083,0.474461
0.296991,0.445521
0.300899,0.415310
0.304807,0.383262
0.308714,0.347979
0.312622,0.308327
0.316530,0.264283
0.320438,0.217054
0.324345,0.168469
0.328253,0.120125
0.332161,0.072861
0.336069,0.026833
0.339977,-0.017935
0.343884,-0.060971
0.347792,-0.101158
0.351700,-0.137084
0.355608,-0.167747
0.359515,-0.193152
0.363423,-0.214352
0.367331,-0.232792
0.371239,-0.249395
0.375147,-0.264034
0.379054,-0.275798
0.382962,-0.283837
0.386870,-0.288173
0.390778,-0.289885
0.394685,-0.290569
0.398593,-0.291420
0.402501,-0.292531
0.406409,-0.292866
0.410317,-0.290901
0.414224,-0.285537
0.418132,-0.276701
0.422040,-0.265307
0.425948,-0.252746
0.429855,-0.240335
0.433763,-0.229095
0.437671,-0.219824
0.441579,-0.213158
0.445487,-0.209382
0.449394,-0.208102
0.453302,-0.208135
0.457210,-0.207876
0.461118,-0.206026
0.465025,-0.202209
0.468933,-0.197040
0.472841,-0.191617
0.476749,-0.186835
0.480657,-0.183065
0.484564,-0.180361
0.488472,-0.178881
0.492380,-0.179031
0.496288,-0.181131
0.500195,-0.184906
0.504103,-0.189327
0.508011,-0.193035
0.511919,-0.195081
0.515826,-0.195409
0.519734,-0.194738
0.523642,-0.193993
0.527550,-0.193727
0.531458,-0.193929
0.535365,-0.194297
0.539273,-0.194728
0.543181,-0.195641
0.547089,-0.197761
0.550996,-0.201340
0.554904,-0.205305
0.558812,-0.207161
0.562720,-0.204101
0.566628,-0.194863
0.570535,-0.181012
0.574443,-0.166514
0.578351,-0.155552
0.582259,-0.149858
0.586166,-0.147320
0.590074,-0.142919
0.593982,-0.131575
0.597890,-0.111317
0.601798,-0.084924
0.605705,-0.059011
0.609613,-0.040924
0.613521,-0.035147
0.617429,-0.041239
0.621336,-0.054521
0.625244,-0.069022
0.629152,-0.080825
0.633060,-0.089732
0.636968,-0.098412
0.640875,-0.109894
0.644783,-0.125298
0.648691,-0.143259
0.652599,-0.161126
0.656506,-0.176769
0.660414,-0.189571
0.664322,-0.200063
0.668230,-0.208763
0.672138,-0.215331
0.676045,-0.218777
0.679953,-0.218504
0.683861,-0.215303
0.687769,-0.211375
0.691676,-0.209142
0.695584,-0.209563
0.699492,-0.211228
0.703400,-0.211129
0.707308,-0.206734
0.711215,-0.197545
0.715123,-0.184103
0.719031,-0.164140
0.722939,-0.128615
0.726846,-0.062411
0.730754,0.046877
0.734662,0.193898
0.738570,0.342513
0.742478,0.425939
0.746385,0.366805
0.750293,0.112801
0.754201,-0.328161
0.758109,-0.873899
0.762016,-1.387876
0.765924,-1.728537
0.769832,-1.806099
0.773740,-1.618457
0.777648,-1.247769
0.781555,-0.820216
0.785463,-0.450946
0.789371,-0.202436
0.793279,-0.074482
0.797186,-0.024779
0.801094,-0.003047
0.805002,0.022221
0.808910,0.056461
0.812818,0.089159
0.816725,0.109645
0.820633,0.116713
0.824541,0.117722
0.828449,0.121272
0.832356,0.130872
0.836264,0.144134
0.840172,0.156592
0.844080,0.165964
0.847987,0.173427
0.851895,0.181712
0.855803,0.192391
0.859711,0.204823
0.863619,0.217317
0.867526,0.229105
0.871434,0.241224
0.875342,0.255607
0.879250,0.273328
0.883157,0.293576
0.887065,0.314206
0.890973,0.333272
0.894881,0.350252
0.898789,0.366084
0.902696,0.382217
0.906604,0.399611
0.910512,0.418434
0.914420,0.438448
0.918327,0.459439
0.922235,0.481120
0.926143,0.502582
0.930051,0.521956
0.933959,0.536819
0.937866,0.545146
0.941774,0.546120
0.945682,0.540235
0.949590,0.528725
0.953497,0.512802
0.957405,0.493178
0.961313,0.470040
0.965221,0.443335
0.969129,0.413088
0.973036,0.379555
0.976944,0.343154
0.980852,0.304297
0.984760,0.263258
0.988667,0.220201
0.992575,0.175329
0.996483,0.129073
1.000391,0.082189
1.004299,0.035716
1.008206,-0.009135
1.012114,-0.051096
1.016022,-0.088914
1.019930,-0.121515
1.023837,-0.148327
1.027745,-0.169660
1.031653,-0.186797
1.035561,-0.201525
1.039469,-0.215207
1.043376,-0.227971
1.047284,-0.238617
1.051192,-0.245406
1.055100,-0.247270
1.059007,-0.244651
1.062915,-0.239441
1.066823,-0.234057
1.070731,-0.230261
1.074639,-0.228403
1.078546,-0.227440
1.082454,-0.225633
1.086362,-0.221501
1.090270,-0.214533
1.094177,-0.205352
1.098085,-0.195314
1.101993,-0.185876
1.105901,-0.178092
1.109809,-0.172444
1.113716,-0.168914
1.117624,-0.167111
1.121532,-0.166323
1.125440,-0.165565
1.129347,-0.163769
1.133255,-0.160162
1.137163,-0.154670
1.141071,-0.148113
1.144979,-0.141992
1.148886,-0.137914
1.152794,-0.136849
1.156702,-0.138616
1.160610,-0.141944
1.164517,-0.145146
1.168425,-0.147033
1.172333,-0.147448
1.176241,-0.147098
1.180148,-0.146897
1.184056,-0.147386
1.187964,-0.148630
1.191872,-0.150499
1.195780,-0.152892
1.199687,-0.155612
1.203595,-0.158105
1.207503,-0.159496
1.211411,-0.159109
1.215318,-0.157133
1.219226,-0.154800
1.223134,-0.153758
1.227042,-0.154884
1.230950,-0.157296
1.234857,-0.158362
1.238765,-0.154988
1.242673,-0.145599
1.246581,-0.131554
1.250488,-0.116834
1.254396,-0.105875
1.258304,-0.100750
1.262212,-0.099544
1.266120,-0.097119
1.270027,-0.088013
1.273935,-0.069783
1.277843,-0.044776
1.281751,-0.019244
1.285658,-0.000318
1.289566,0.007411
1.293474,0.003780
1.297382,-0.007508
1.301290,-0.021315
1.305197,-0.033783
1.309105,-0.043818
1.313013,-0.052823
1.316921,-0.063211
1.320828,-0.076744
1.324736,-0.093540
1.328644,-0.112097
1.332552,-0.130133
1.336460,-0.145684
1.340367,-0.157815
1.344275,-0.166531
1.348183,-0.172099
1.352091,-0.174461
1.355998,-0.173441
1.359906,-0.169665
1.363814,-0.165216
1.367722,-0.162980
1.371630,-0.164607
1.375537,-0.168529
1.379445,-0.170084
1.383353,-0.164553
1.387261,-0.151174
1.391168,-0.134221
1.395076,-0.118353
1.398984,-0.100021
1.402892,-0.061917
1.406800,0.021528
1.410707,0.165520
1.414615,0.351604
1.418523,0.516035
1.422431,0.563974
1.426338,0.409964
1.430246,0.027142
1.434154,-0.522644
1.438062,-1.099401
1.441970,-1.536714
1.445877,-1.711021
1.449785,-1.593001
1.453693,-1.254421
1.457601,-0.828372
1.461508,-0.446265
1.465416,-0.185676
1.469324,-0.053486
1.473232,-0.006136
1.477140,0.011761
1.481047,0.035613
1.484955,0.071325
1.488863,0.106556
1.492771,0.128973
1.496678,0.137234
1.500586,0.139559
1.504494,0.144970
1.508402,0.156240
1.512309,0.169744
1.516217,0.180591
1.520125,0.187521
1.524033,0.193518
1.527941,0.202547
1.531848,0.215984
1.535756,0.231884
1.539664,0.247237
1.543572,0.260781
1.547479,0.273864
1.551387,0.288867
1.555295,0.306855
1.559203,0.326506
1.563111,0.345141
1.567018,0.360877
1.570926,0.374174
1.574834,0.387606
1.578742,0.404139
1.582649,0.425266
1.586557,0.450290
1.590465,0.477034
1.594373,0.503172
1.598281,0.527131
1.602188,0.548105
1.606096,0.565484
1.610004,0.578387
1.613912,0.585721
1.617819,0.586674
1.621727,0.581179
1.625635,0.569971
1.629543,0.554207
1.633451,0.534924
1.637358,0.512678
1.641266,0.487567
1.645174,0.459491
1.649082,0.428376
1.652989,0.394157
1.656897,0.356672
1.660805,0.315682
1.664713,0.271181
1.668621,0.223787
1.672528,0.174944
1.676436,0.126636
1.680344,0.080714
1.684252,0.038215
1.688159,-0.000803
1.692067,-0.036749
1.695975,-0.069742
1.699883,-0.099287
1.703791,-0.124701
1.707698,-0.145924
1.711606,-0.163940
1.715514,-0.180321
1.719422,-0.196077
1.723329,-0.210620
1.727237,-0.221754
1.731145,-0.226953
1.735053,-0.225167
1.738961,-0.217882
1.742868,-0.208601
1.746776,-0.201035
1.750684,-0.197147
1.754592,-0.196263
1.758499,-0.195711
1.762407,-0.192566
1.766315,-0.185358
1.770223,-0.174764
1.774131,-0.162991
1.778038,-0.152448
1.781946,-0.144608
1.785854,-0.139631
1.789762,-0.136708
1.793669,-0.134713
1.797577,-0.132754
1.801485,-0.130415
1.805393,-0.127683
1.809301,-0.124708
1.813208,-0.121603
1.817116,-0.118424
1.821024,-0.115331
1.824932,-0.112709
1.828839,-0.111094
1.832747,-0.110908
1.836655,-0.112174
1.840563,-0.114454
1.844470,-0.117060
1.848378,-0.119401
1.852286,-0.121226
1.856194,-0.122617
1.860102,-0.123807
1.864009,-0.124967
1.867917,-0.126113
1.871825,-0.127155
1.875733,-0.128055
1.879640,-0.128971
1.883548,-0.130202
1.887456,-0.131895
1.891364,-0.133704
1.895272,-0.134831
1.899179,-0.134579
1.903087,-0.133079
1.906995,-0.131515
1.910903,-0.131417
1.914810,-0.133342
1.918718,-0.135933
1.922626,-0.136285
1.926534,-0.131701
1.930442,-0.121721
1.934349,-0.108899
1.938257,-0.097505
1.942165,-0.090818
1.946073,-0.088761
1.949980,-0.087550
1.953888,-0.081710
1.957796,-0.067303
1.961704,-0.044416
1.965612,-0.017508
1.969519,0.006556
1.973427,0.021654
1.977335,0.025067
1.981243,0.018315
1.985150,0.005865
1.989058,-0.007442
1.992966,-0.018756
1.996874,-0.028083
2.000782,-0.037398
2.004689,-0.048841
2.008597,-0.063229
2.012505,-0.079700
2.016413,-0.096420
2.020320,-0.111698
2.024228,-0.124672
2.028136,-0.135158
2.032044,-0.142894
2.035952,-0.147006
2.039859,-0.146455
2.043767,-0.141393
2.047675,-0.134293
2.051583,-0.129359
2.055490,-0.129859
2.059398,-0.135034
2.063306,-0.139417
2.067214,-0.136239
2.071122,-0.123261
2.075029,-0.106155
2.078937,-0.094684
2.082845,-0.091724
2.086753,-0.082215
2.090660,-0.032988
2.094568,0.089858
2.098476,0.291267
2.102384,0.522978
2.106292,0.685321
2.110199,0.663789
2.114107,0.387360
2.118015,-0.122222
2.121923,-0.741599
2.125830,-1.288806
2.129738,-1.599852
2.133646,-1.599545
2.137554,-1.329013
2.141462,-0.916785
2.145369,-0.512162
2.149277,-0.219061
2.153185,-0.064176
2.157093,-0.009684
2.161000,0.005780
2.164908,0.026963
2.168816,0.064840
2.172724,0.105656
2.176631,0.132394
2.180539,0.140704
2.184447,0.139996
2.188355,0.143259
2.192263,0.156372
2.196170,0.175306
2.200078,0.191656
2.203986,0.200392
2.207894,0.203329
2.211801,0.206485
2.215709,0.214670
2.219617,0.228163
2.223525,0.243727
2.227433,0.258233
2.231340,0.271400
2.235248,0.285511
2.239156,0.302862
2.243064,0.323480
2.246971,0.345053
2.250879,0.364939
2.254787,0.382371
2.258695,0.399009
2.262603,0.417500
2.266510,0.439379
2.270418,0.464054
2.274326,0.489524
2.278234,0.514010
2.282141,0.536981
2.286049,0.558759
2.289957,0.579213
2.293865,0.596773
2.297773,0.608701
2.301680,0.612479
2.305588,0.607309
2.309496,0.594649
2.313404,0.577398
2.317311,0.558284
2.321219,0.538465
2.325127,0.517178
2.329035,0.492543
2.332943,0.462903
2.336850,0.427813
2.340758,0.388159
2.344666,0.345538
2.348574,0.301439
2.352481,0.256760
2.356389,0.211828
2.360297,0.166789
2.364205,0.122028
2.368113,0.078328
2.372020,0.036722
2.375928,-0.001771
2.379836,-0.036302
2.383744,-0.066272
2.387651,-0.091498
2.391559,-0.112463
2.395467,-0.130379
2.399375,-0.146729
2.403283,-0.162412
2.407190,-0.177068
2.411098,-0.189150
2.415006,-0.196853
2.418914,-0.199321
2.422821,-0.197327
2.426729,-0.192912
2.430637,-0.188170
2.434545,-0.184009
2.438453,-0.179755
2.442360,-0.173895
2.446268,-0.165405
2.450176,-0.154658
2.454084,-0.143300
2.457991,-0.133267
2.461899,-0.125708
2.465807,-0.120544
2.469715,-0.116837
2.473623,-0.113612
2.477530,-0.110505
2.481438,-0.107823
2.485346,-0.105990
2.489254,-0.104878
2.493161,-0.103623
2.497069,-0.101176
2.500977,-0.097197
2.504885,-0.092510
2.508792,-0.088650
2.512700,-0.086832
2.516608,-0.087177
2.520516,-0.088834
2.524424,-0.090815
2.528331,-0.092787
2.532239,-0.095114
2.536147,-0.098204
2.540055,-0.101799
2.543962,-0.104886
2.547870,-0.106365
2.551778,-0.105912
2.555686,-0.104295
2.559594,-0.102848
2.563501,-0.102501
2.567409,-0.103195
2.571317,-0.104147
2.575225,-0.104698
2.579132,-0.104919
2.583040,-0.105431
2.586948,-0.106655
2.590856,-0.108225
2.594764,-0.109187
2.598671,-0.108820
2.602579,-0.107309
2.606487,-0.105579
2.610395,-0.104287
2.614302,-0.102796
2.618210,-0.099125
2.622118,-0.091193
2.626026,-0.078647
2.629934,-0.063863
2.633841,-0.051094
2.637749,-0.043973
2.641657,-0.042876
2.645565,-0.044010
2.649472,-0.041084
2.653380,-0.028789
2.657288,-0.006062
2.661196,0.022825
2.665104,0.050060
2.669011,0.067988
2.672919,0.072652
2.676827,0.065289
2.680735,0.051098
2.684642,0.036165
2.688550,0.024377
2.692458,0.015992
2.696366,0.008418
2.700274,-0.001570
2.704181,-0.015631
2.708089,-0.032928
2.711997,-0.050819
2.715905,-0.066564
2.719812,-0.078836
2.723720,-0.088016
2.727628,-0.095122
2.731536,-0.100351
2.735444,-0.102612
2.739351,-0.100718
2.743259,-0.095283
2.747167,-0.089442
2.751075,-0.087090
2.754982,-0.089529
2.758890,-0.093340
2.762798,-0.092162
2.766706,-0.082081
2.770614,-0.066406
2.774521,-0.054228
2.778429,-0.050861
2.782337,-0.045620
2.786245,-0.007937
2.790152,0.099259
2.794060,0.290965
2.797968,0.531985
2.801876,0.730976
2.805784,0.769593
2.809691,0.558906
2.813599,0.094888
2.817507,-0.520614
2.821415,-1.111285
2.825322,-1.498776
2.829230,-1.579812
2.833138,-1.367237
2.837046,-0.974212
2.840953,-0.553062
2.844861,-0.224605
2.848769,-0.035519
2.852677,0.039138
2.856585,0.059050
2.860492,0.075532
2.864400,0.107799
2.868308,0.146643
2.872216,0.174667
2.876123,0.184623
2.880031,0.183741
2.883939,0.185050
2.887847,0.195880
2.891755,0.213333
2.895662,0.228856
2.899570,0.236488
2.903478,0.237494
2.907386,0.238410
2.911293,0.245261
2.915201,0.259261
2.919109,0.277106
2.923017,0.294718
2.926925,0.310751
2.930832,0.327055
2.934740,0.346256
2.938648,0.368910
2.942556,0.392677
2.946463,0.414025
2.950371,0.430941
2.954279,0.444469
2.958187,0.458007
2.962095,0.475063
2.966002,0.497184
2.969910,0.523395
2.973818,0.551168
2.977726,0.577909
2.981633,0.601875
2.985541,0.622150
2.989449,0.638095
2.993357,0.648975
2.997265,0.654057
3.001172,0.653004
3.005080,0.646075
3.008988,0.633917
3.012896,0.617118
3.016803,0.595964
3.020711,0.570598
3.024619,0.541437
3.028527,0.509396
3.032435,0.475623
3.036342,0.440814
3.040250,0.404634
3.044158,0.365796
3.048066,0.322909
3.051973,0.275631
3.055881,0.225330
3.059789,0.174742
3.063697,0.126783
3.067605,0.083294
3.071512,0.044534
3.075420,0.009692
3.079328,-0.022117
3.083236,-0.051173
3.087143,-0.077207
3.091051,-0.099964
3.094959,-0.119645
3.098867,-0.136839
3.102775,-0.151962
3.106682,-0.164679
3.110590,-0.173837
3.114498,-0.178172
3.118406,-0.177404
3.122313,-0.172958
3.126221,-0.167577
3.130129,-0.163884
3.134037,-0.162733
3.137945,-0.162558
3.141852,-0.160292
3.145760,-0.153334
3.149668,-0.141255
3.153576,-0.126078
3.157483,-0.111042
3.161391,-0.098789
3.165299,-0.090217
3.169207,-0.084606
3.173114,-0.080688
3.177022,-0.077727
3.180930,-0.075788
3.184838,-0.075097
3.188746,-0.075158
3.192653,-0.074538
3.196561,-0.071670
3.200469,-0.066119
3.204377,-0.059247
3.208284,-0.053592
3.212192,-0.051304
3.216100,-0.052781
3.220008,-0.056497
3.223916,-0.060125
3.227823,-0.062083
3.231731,-0.062398
3.235639,-0.062336
3.239547,-0.063218
3.243454,-0.065338
3.247362,-0.067778
3.251270,-0.069111
3.255178,-0.068408
3.259086,-0.065822
3.262993,-0.062481
3.266901,-0.059898
3.270809,-0.059334
3.274717,-0.061362
3.278624,-0.065668
3.282532,-0.071084
3.286440,-0.075898
3.290348,-0.078492
3.294256,-0.078109
3.298163,-0.075321
3.302071,-0.071749
3.305979,-0.068996
3.309887,-0.067408
3.313794,-0.065602
3.317702,-0.061337
3.321610,-0.053285
3.325518,-0.042463
3.329426,-0.032099
3.333333,-0.025712
3.337241,-0.024518
3.341149,-0.025920
3.345057,-0.024313
3.348964,-0.014004
3.352872,0.007369
3.356780,0.036984
3.360688,0.067696
3.364596,0.091224
3.368503,0.101948
3.372411,0.099302
3.376319,0.087569
3.380227,0.073307
3.384134,0.061893
3.388042,0.055091
3.391950,0.050813
3.395858,0.044973
3.399766,0.034187
3.403673,0.017742
3.407581,-0.002202
3.411489,-0.022081
3.415397,-0.038965
3.419304,-0.051803
3.423212,-0.061156
3.427120,-0.067878
3.431028,-0.071960
3.434936,-0.072593
3.438843,-0.069451
3.442751,-0.064043
3.446659,-0.059612
3.450567,-0.059049
3.454474,-0.062044
3.458382,-0.064053
3.462290,-0.058903
3.466198,-0.043991
3.470106,-0.023819
3.474013,-0.007187
3.477921,0.002488
3.481829,0.017617
3.485737,0.067428
3.489644,0.182758
3.493552,0.368794
3.497460,0.581743
3.501368,0.728875
3.505275,0.701217
3.509183,0.428225
3.513091,-0.073784
3.516999,-0.689858
3.520907,-1.244363
3.524814,-1.573481
3.528722,-1.595510
3.532630,-1.341763
3.536538,-0.932840
3.540445,-0.515899
3.544353,-0.199062
3.548261,-0.016885
3.552169,0.060917
3.556077,0.091489
3.559984,0.119353
3.563892,0.157922
3.567800,0.196462
3.571708,0.220088
3.575615,0.225366
3.579523,0.221915
3.583431,0.222879
3.587339,0.234504
3.591247,0.253180
3.595154,0.270655
3.599062,0.281659
3.602970,0.287508
3.606878,0.293698
3.610785,0.304641
3.614693,0.320334
3.618601,0.337292
3.622509,0.352160
3.626417,0.364552
3.630324,0.376920
3.634232,0.392081
3.638140,0.410825
3.642048,0.431571
3.645955,0.452037
3.649863,0.471225
3.653771,0.490002
3.657679,0.509979
3.661587,0.531886
3.665494,0.554931
3.669402,0.577595
3.673310,0.598981
3.677218,0.619380
3.681125,0.639547
3.685033,0.659366
3.688941,0.677142
3.692849,0.690174
3.696757,0.696192
3.700664,0.694539
3.704572,0.686217
3.708480,0.672834
3.712388,0.655295
3.716295,0.633205
3.720203,0.605356
3.724111,0.570888
3.728019,0.530275
3.731927,0.485514
3.735834,0.439444
3.739742,0.394643
3.743650,0.352531
3.747558,0.313068
3.751465,0.275099
3.755373,0.237085
3.759281,0.197847
3.763189,0.156989
3.767097,0.114889
3.771004,0.072401
3.774912,0.030571
3.778820,-0.009444
3.782728,-0.046369
3.786635,-0.078927
3.790543,-0.106122
3.794451,-0.127518
3.798359,-0.143293
3.802267,-0.154063
3.806174,-0.160624
3.810082,-0.163827
3.813990,-0.164651
3.817898,-0.164295
3.821805,-0.164037
3.825713,-0.164756
3.829621,-0.166329
3.833529,-0.167356
3.837436,-0.165584
3.841344,-0.158990
3.845252,-0.147008
3.849160,-0.131185
3.853068,-0.114713
3.856975,-0.100948
3.860883,-0.091683
3.864791,-0.086297
3.868699,-0.082392
3.872606,-0.077509
3.876514,-0.070740
3.880422,-0.063097
3.884330,-0.056462
3.888238,-0.051988
3.892145,-0.049165
3.896053,-0.046242
3.899961,-0.041651
3.903869,-0.035330
3.907776,-0.028931
3.911684,-0.024779
3.915592,-0.024341
3.919500,-0.027315
3.923408,-0.031914
3.927315,-0.036021
3.931223,-0.038369
3.935131,-0.039025
3.939039,-0.039006
3.942946,-0.039404
3.946854,-0.040648
3.950762,-0.042342
3.954670,-0.043726
3.958578,-0.044373
3.962485,-0.044581
3.966393,-0.045212
3.970301,-0.047128
3.974209,-0.050598
3.978116,-0.054992
3.982024,-0.058924
3.985932,-0.060778
3.989840,-0.059442
3.993748,-0.054922
3.997655,-0.048508
4.001563,-0.042265
4.005471,-0.037931
4.009379,-0.035747
4.013286,-0.034011
4.017194,-0.029930
4.021102,-0.021491
4.025010,-0.009139
4.028918,0.004087
4.032825,0.014361
4.036733,0.019796
4.040641,0.022218
4.044549,0.026613
4.048456,0.038354
4.052364,0.059769
4.056272,0.088170
4.060180,0.116640
4.064088,0.137253
4.067995,0.144919
4.071903,0.139605
4.075811,0.125771
4.079719,0.109558
4.083626,0.095569
4.087534,0.085045
4.091442,0.076155
4.095350,0.065830
4.099258,0.051916
4.103165,0.034502
4.107073,0.015872
4.110981,-0.000730
4.114889,-0.012779
4.118796,-0.019604
4.122704,-0.022349
4.126612,-0.022889
4.130520,-0.022597
4.134428,-0.021921
4.138335,-0.020934
4.142243,-0.020062
4.146151,-0.020013
4.150059,-0.020749
4.153966,-0.020548
4.157874,-0.016512
4.161782,-0.006789
4.165690,0.007239
4.169597,0.021643
4.173505,0.034922
4.177413,0.054760
4.181321,0.100433
4.185229,0.195057
4.189136,0.347634
4.193044,0.533486
4.196952,0.687039
4.200860,0.717833
4.204767,0.548552
4.208675,0.158996
4.212583,-0.388176
4.216491,-0.958436
4.220399,-1.393363
4.224306,-1.574703
4.228214,-1.472578
4.232122,-1.153036
4.236030,-0.741961
4.239937,-0.366078
4.243845,-0.102702
4.247753,0.038042
4.251661,0.095464
4.255569,0.121873
4.259476,0.151355
4.263384,0.189500
4.267292,0.223760
4.271200,0.241703
4.275107,0.242811
4.279015,0.237585
4.282923,0.238018
4.286831,0.248713
4.290739,0.265287
4.294646,0.279850
4.298554,0.287992
4.302462,0.291646
4.306370,0.296469
4.310277,0.306817
4.314185,0.322661
4.318093,0.340418
4.322001,0.356289
4.325909,0.369082
4.329816,0.380546
4.333724,0.393557
4.337632,0.409987
4.341540,0.429847
4.345447,0.451916
4.349355,0.474918
4.353263,0.498224
4.357171,0.521760
4.361079,0.545524
4.364986,0.569283
4.368894,0.592618
4.372802,0.615112
4.376710,0.636381
4.380617,0.655908
4.384525,0.672833
4.388433,0.685901
4.392341,0.693677
4.396249,0.694998
4.400156,0.689496
4.404064,0.677872
4.407972,0.661653
4.411880,0.642449
4.415787,0.621101
4.419695,0.597299
4.423603,0.569994
4.427511,0.538327
4.431419,0.502375
4.435326,0.463136
4.439234,0.421783
4.443142,0.378834
4.447050,0.333920
4.450957,0.286407
4.454865,0.236444
4.458773,0.185633
4.462681,0.136769
4.466589,0.092741
4.470496,0.055234
4.474404,0.024023
4.478312,-0.002733
4.482220,-0.027341
4.486127,-0.051225
4.490035,-0.074150
4.493943,-0.094499
4.497851,-0.110399
4.501758,-0.120977
4.505666,-0.126932
4.509574,-0.130127
4.513482,-0.132568
4.517390,-0.135497
4.521297,-0.139056
4.525205,-0.142518
4.529113,-0.144718
4.533021,-0.144457
4.536928,-0.140842
4.540836,-0.133587
4.544744,-0.123196
4.548652,-0.110911
4.552560,-0.098364
4.556467,-0.087024
4.560375,-0.077645
4.564283,-0.070017
4.568191,-0.063255
4.572098,-0.056551
4.576006,-0.049936
4.579914,-0.044439
4.583822,-0.041415
4.587730,-0.041436
4.591637,-0.043581
4.595545,-0.045706
4.599453,-0.045615
4.603361,-0.042356
4.607268,-0.036773
4.611176,-0.030973
4.615084,-0.027115
4.618992,-0.026333
4.622900,-0.028422
4.626807,-0.032306
4.630715,-0.036772
4.634623,-0.040943
4.638531,-0.044308
4.642438,-0.046541
4.646346,-0.047475
4.650254,-0.047309
4.654162,-0.046805
4.658070,-0.047141
4.661977,-0.049306
4.665885,-0.053402
4.669793,-0.058369
4.673701,-0.062460
4.677608,-0.064165
4.681516,-0.062966
4.685424,-0.059379
4.689332,-0.054340
4.693240,-0.048492
4.697147,-0.041987
4.701055,-0.034885
4.704963,-0.027670
4.708871,-0.021256
4.712778,-0.016328
4.716686,-0.012503
4.720594,-0.008080
4.724502,-0.000716
4.728410,0.011273
4.732317,0.027782
4.736225,0.046637
4.740133,0.064335
4.744041,0.077424
4.747948,0.083828
4.751856,0.083478
4.755764,0.077961
4.759672,0.069407
4.763580,0.059309
4.767487,0.048032
4.771395,0.035240
4.775303,0.020799
4.779211,0.005349
4.783118,-0.009898
4.787026,-0.023903
4.790934,-0.036388
4.794842,-0.047683
4.798750,-0.057888
4.802657,-0.066079
4.806565,-0.070444
4.810473,-0.069606
4.814381,-0.064307
4.818288,-0.057952
4.822196,-0.055029
4.826104,-0.058030
4.830012,-0.065031
4.833919,-0.070241
4.837827,-0.067850
4.841735,-0.056629
4.845643,-0.041169
4.849551,-0.027232
4.853458,-0.013192
4.857366,0.015992
4.861274,0.085051
4.865182,0.212672
4.869089,0.390208
4.872997,0.568285
4.876905,0.664126
4.880813,0.592453
4.884721,0.308249
4.888628,-0.160486
4.892536,-0.710202
4.896444,-1.195394
4.900352,-1.484788
4.904259,-1.513293
4.908167,-1.304147
4.912075,-0.951412
4.915983,-0.573877
4.919891,-0.265404
4.923798,-0.065827
4.927706,0.037489
4.931614,0.085015
4.935522,0.115570
4.939429,0.148558
4.943337,0.183755
4.947245,0.212656
4.951153,0.230217
4.955061,0.239017
4.958968,0.245518
4.962876,0.253947
4.966784,0.263612
4.970692,0.271264
4.974599,0.275462
4.978507,0.278667
4.982415,0.285366
4.986323,0.298199
4.990231,0.315629
4.994138,0.333136
4.998046,0.346900
5.001954,0.356960
5.005862,0.367410
5.009769,0.383514
5.013677,0.407923
5.017585,0.438725
5.021493,0.470613
5.025401,0.498153
5.029308,0.518816
5.033216,0.533859
5.037124,0.546888
5.041032,0.561447
5.044939,0.579271
5.048847,0.599962
5.052755,0.621750
5.056663,0.642442
5.060571,0.660000
5.064478,0.672767
5.068386,0.679737
5.072294,0.680930
5.076202,0.677539
5.080109,0.671449
5.084017,0.664179
5.087925,0.655812
5.091833,0.644631
5.095741,0.627828
5.099648,0.603002
5.103556,0.569572
5.107464,0.529211
5.111372,0.484958
5.115279,0.439572
5.119187,0.394199
5.123095,0.348191
5.127003,0.300101
5.130911,0.249165
5.134818,0.196308
5.138726,0.144078
5.142634,0.095576
5.146542,0.053068
5.150449,0.017115
5.154357,-0.013336
5.158265,-0.040141
5.162173,-0.064997
5.166081,-0.088769
5.169988,-0.111263
5.173896,-0.131377
5.177804,-0.147607
5.181712,-0.158812
5.185619,-0.164985
5.189527,-0.167587
5.193435,-0.169094
5.197343,-0.171792
5.201250,-0.176399
5.205158,-0.181415
5.209066,-0.183780
5.212974,-0.180561
5.216882,-0.170654
5.220789,-0.155444
5.224697,-0.138066
5.228605,-0.121814
5.232513,-0.108658
5.236420,-0.098634
5.240328,-0.090309
5.244236,-0.081944
5.248144,-0.072693
5.252052,-0.063227
5.255959,-0.055514
5.259867,-0.051844
5.263775,-0.053567
5.267683,-0.060148
5.271590,-0.069045
5.275498,-0.076569
5.279406,-0.079398
5.283314,-0.076046
5.287222,-0.067469
5.291129,-0.056433
5.295037,-0.045978
5.298945,-0.037991
5.302853,-0.032784
5.306760,-0.029826
5.310668,-0.028833
5.314576,-0.030269
5.318484,-0.034926
5.322392,-0.043100
5.326299,-0.054080
5.330207,-0.066202
5.334115,-0.077233
5.338023,-0.084770
5.341930,-0.086664
5.345838,-0.081620
5.349746,-0.069932
5.353654,-0.053960
5.357562,-0.037783
5.361469,-0.025769
5.365377,-0.020498
5.369285,-0.021152
5.373193,-0.023569
5.377100,-0.022299
5.381008,-0.013613
5.384916,0.002339
5.388824,0.021584
5.392732,0.038493
5.396639,0.048644
5.400547,0.050685
5.404455,0.046338
5.408363,0.038952
5.412270,0.031695
5.416178,0.026325
5.420086,0.022820
5.423994,0.019683
5.427902,0.014686
5.431809,0.005873
5.435717,-0.007497
5.439625,-0.024502
5.443533,-0.042891
5.447440,-0.059990
5.451348,-0.073648
5.455256,-0.082723
5.459164,-0.087084
5.463072,-0.087392
5.466979,-0.084965
5.470887,-0.081636
5.474795,-0.079250
5.478703,-0.078692
5.482610,-0.078967
5.486518,-0.077337
5.490426,-0.071037
5.494334,-0.059726
5.498242,-0.046513
5.502149,-0.035491
5.506057,-0.025978
5.509965,-0.007014
5.513873,0.042279
5.517780,0.142655
5.521688,0.297148
5.525596,0.475117
5.529504,0.609971
5.533411,0.617934
5.537319,0.433892
5.541227,0.048632
5.545135,-0.472852
5.549043,-1.005418
5.552950,-1.407673
5.556858,-1.576689
5.560766,-1.487369
5.564674,-1.197420
5.568581,-0.816667
5.572489,-0.457725
5.576397,-0.193241
5.580305,-0.038873
5.584213,0.034577
5.588120,0.072066
5.592028,0.106933
5.595936,0.148940
5.599844,0.189713
5.603751,0.217147
5.607659,0.227201
5.611567,0.226180
5.615475,0.224626
5.619383,0.229387
5.623290,0.240129
5.627198,0.251922
5.631106,0.260628
5.635014,0.266420
5.638921,0.273128
5.642829,0.284745
5.646737,0.302312
5.650645,0.323470
5.654553,0.344553
5.658460,0.363208
5.662368,0.379567
5.666276,0.395402
5.670184,0.412346
5.674091,0.430724
5.677999,0.449763
5.681907,0.468669
5.685815,0.487452
5.689723,0.506801
5.693630,0.527278
5.697538,0.548698
5.701446,0.570239
5.705354,0.591128
5.709261,0.611205
5.713169,0.630805
5.717077,0.649947
5.720985,0.667487
5.724893,0.680988
5.728800,0.687636
5.732708,0.685707
5.736616,0.675619
5.740524,0.659766
5.744431,0.641120
5.748339,0.621493
5.752247,0.600571
5.756155,0.576316
5.760063,0.546353
5.763970,0.509385
5.767878,0.465813
5.771786,0.417434
5.775694,0.366620
5.779601,0.315516
5.783509,0.265530
5.787417,0.217210
5.791325,0.170434
5.795233,0.124869
5.799140,0.080503
5.803048,0.038029
5.806956,-0.001150
5.810864,-0.035337
5.814771,-0.063221
5.818679,-0.084483
5.822587,-0.100008
5.826495,-0.111474
5.830403,-0.120481
5.834310,-0.127724
5.838218,-0.132793
5.842126,-0.134783
5.846034,-0.133297
5.849941,-0.129126
5.853849,-0.124095
5.857757,-0.120183
5.861665,-0.118479
5.865572,-0.118669
5.869480,-0.119298
5.873388,-0.118574
5.877296,-0.115174
5.881204,-0.108645
5.885111,-0.099357
5.889019,-0.088242
5.892927,-0.076568
5.896835,-0.065781
5.900742,-0.057287
5.904650,-0.052076
5.908558,-0.050324
5.912466,-0.051257
5.916374,-0.053438
5.920281,-0.055354
5.924189,-0.055958
5.928097,-0.054844
5.932005,-0.051993
5.935912,-0.047409
5.939820,-0.041024
5.943728,-0.032997
5.947636,-0.024171
5.951544,-0.016229
5.955451,-0.011307
5.959359,-0.011176
5.963267,-0.016427
5.967175,-0.026112
5.971082,-0.037973
5.974990,-0.049122
5.978898,-0.056930
5.982806,-0.059903
5.986714,-0.058341
5.990621,-0.054375
5.994529,-0.051052
5.998437,-0.050638
6.002345,-0.053034
6.006252,-0.055479
6.010160,-0.054061
6.014068,-0.046316
6.017976,-0.033244
6.021884,-0.019208
6.025791,-0.009460
6.029699,-0.006671
6.033607,-0.008698
6.037515,-0.009271
6.041422,-0.001502
6.045330,0.017791
6.049238,0.045659
6.053146,0.074125
6.057054,0.094231
6.060961,0.100542
6.064869,0.093382
6.068777,0.077641
6.072685,0.059299
6.076592,0.042133
6.080500,0.026574
6.084408,0.010952
6.088316,-0.006294
6.092224,-0.025167
6.096131,-0.044216
6.100039,-0.061654
6.103947,-0.076336
6.107855,-0.087872
6.111762,-0.096090
6.115670,-0.100636
6.119578,-0.101284
6.123486,-0.098781
6.127394,-0.095322
6.131301,-0.093881
6.135209,-0.096548
6.139117,-0.103004
6.143025,-0.110460
6.146932,-0.115325
6.150840,-0.115440
6.154748,-0.110905
6.158656,-0.102257
6.162564,-0.086834
6.166471,-0.056153
6.170379,0.002425
6.174287,0.098384
6.178195,0.227378
6.182102,0.362736
6.186010,0.455522
6.189918,0.446644
6.193826,0.288858
6.197733,-0.029357
6.201641,-0.469061
6.205549,-0.944262
6.209457,-1.345401
6.213365,-1.575405
6.217272,-1.583854
6.221180,-1.384258
6.225088,-1.046518
6.228996,-0.668034
6.232903,-0.336832
6.236811,-0.103347
6.240719,0.027779
6.244627,0.085404
6.248535,0.108767
6.252442,0.127060
6.256350,0.150991
6.260258,0.176985
6.264166,0.197425
6.268073,0.208790
6.271981,0.213381
6.275889,0.215940
6.279797,0.219528
6.283705,0.224148
6.287612,0.228388
6.291520,0.231804
6.295428,0.235721
6.299336,0.242055
6.303243,0.251562
6.307151,0.263254
6.311059,0.275430
6.314967,0.287265
6.318875,0.299535
6.322782,0.313860
6.326690,0.331184
6.330598,0.350756
6.334506,0.370442
6.338413,0.388072
6.342321,0.402784
6.346229,0.415374
6.350137,0.427539
6.354045,0.440714
6.357952,0.455415
6.361860,0.471411
6.365768,0.488284
6.369676,0.505670
6.373583,0.523001
6.377491,0.539131
6.381399,0.552386
6.385307,0.561094
6.389215,0.564176
6.393122,0.561333
6.397030,0.552777
6.400938,0.538832
6.404846,0.519780
6.408753,0.496043
6.412661,0.468416
6.416569,0.438048
6.420477,0.406036
6.424385,0.372925
6.428292,0.338512
6.432200,0.302156
6.436108,0.263334
6.440016,0.222046
6.443923,0.178838
6.447831,0.134594
6.451739,0.090385
6.455647,0.047464
6.459555,0.007258
6.463462,-0.028857
6.467370,-0.059970
6.471278,-0.085999
6.475186,-0.107707
6.479093,-0.126266
6.483001,-0.142560
6.486909,-0.156668
6.490817,-0.167908
6.494725,-0.175417
6.498632,-0.178903
6.502540,-0.179045
6.506448,-0.177277
6.510356,-0.175112
6.514263,-0.173413
6.518171,-0.172031
6.522079,-0.169968
6.525987,-0.165965
6.529894,-0.159229
6.533802,-0.149960
6.537710,-0.139399
6.541618,-0.129354
6.545526,-0.121403
6.549433,-0.116190
6.553341,-0.113229
6.557249,-0.111338
6.561157,-0.109447
6.565064,-0.107249
6.568972,-0.105218
6.572880,-0.104032
6.576788,-0.103853
6.580696,-0.104041
6.584603,-0.103498
6.588511,-0.101403
6.592419,-0.097821
6.596327,-0.093789
6.600234,-0.090774
6.604142,-0.089831
6.608050,-0.090986
6.611958,-0.093273
6.615866,-0.095392
6.619773,-0.096496
6.623681,-0.096591
6.627589,-0.096347
6.631497,-0.096592
6.635404,-0.097876
6.639312,-0.100322
6.643220,-0.103692
6.647128,-0.107479
6.651036,-0.110971
6.654943,-0.113396
6.658851,-0.114276
6.662759,-0.113805
6.666667,-0.112830
6.670574,-0.112209
6.674482,-0.111845
6.678390,-0.110265
6.682298,-0.105362
6.686206,-0.096023
6.690113,-0.083376
6.694021,-0.070450
6.697929,-0.060170
6.701837,-0.053070
6.705744,-0.046543
6.709652,-0.036410
6.713560,-0.019902
6.717468,0.001982
6.721376,0.024395
6.725283,0.040962
6.729191,0.047059
6.733099,0.042015
6.737007,0.029029
6.740914,0.013129
6.744822,-0.001449
6.748730,-0.012973
6.752638,-0.022366
6.756546,-0.032069
6.760453,-0.044447
6.764361,-0.060580
6.768269,-0.079854
6.772177,-0.100304
6.776084,-0.119365
6.779992,-0.134661
6.783900,-0.144615
6.787808,-0.148828
6.791716,-0.148204
6.795623,-0.144745
6.799531,-0.140933
6.803439,-0.138802
6.807347,-0.139083
6.811254,-0.140895
6.815162,-0.142258
6.819070,-0.141246
6.822978,-0.137039
6.826886,-0.129816
6.830793,-0.118813
6.834701,-0.099267
6.838609,-0.060746
6.842517,0.010006
6.846424,0.120291
6.850332,0.259401
6.854240,0.390109
6.858148,0.451705
6.862055,0.378507
6.865963,0.129404
6.869871,-0.284411
6.873779,-0.789186
6.877687,-1.265528
6.881594,-1.589009
6.885502,-1.677562
6.889410,-1.523157
6.893318,-1.191973
6.897225,-0.793221
6.901133,-0.432924
6.905041,-0.175706
6.908949,-0.031428
6.912857,0.031394
6.916764,0.057561
6.920672,0.080031
6.924580,0.109623
6.928488,0.140433
6.932395,0.162662
6.936303,0.172627
6.940211,0.174594
6.944119,0.176003
6.948027,0.181646
6.951934,0.191371
6.955842,0.202007
6.959750,0.210846
6.963658,0.217595
6.967565,0.223741
6.971473,0.230661
6.975381,0.238480
6.979289,0.246567
6.983197,0.254877
6.987104,0.264663
6.991012,0.277813
6.994920,0.295334
6.998828,0.316281
7.002735,0.338010
7.006643,0.357594
7.010551,0.373369
7.014459,0.385609
7.018367,0.396104
7.022274,0.407164
7.026182,0.420726
7.030090,0.437867
7.033998,0.458642
7.037905,0.482088
7.041813,0.506332
7.045721,0.528826
7.049629,0.546754
7.053537,0.557617
7.057444,0.559860
7.061352,0.553346
7.065260,0.539429
7.069168,0.520506
7.073075,0.499147
7.076983,0.477144
7.080891,0.454940
7.084799,0.431744
7.088707,0.406214
7.092614,0.377215
7.096522,0.344182
7.100430,0.307032
7.104338,0.265929
7.108245,0.221230
7.112153,0.173680
7.116061,0.124590
7.119969,0.075759
7.123877,0.029095
7.127784,-0.013813
7.131692,-0.051929
7.135600,-0.084767
7.139508,-0.112347
7.143415,-0.135287
7.147323,-0.154866
7.151231,-0.172728
7.155139,-0.190118
7.159047,-0.207010
7.162954,-0.221828
7.166862,-0.232180
7.170770,-0.236331
7.174678,-0.234478
7.178585,-0.228920
7.182493,-0.222946
7.186401,-0.219126
7.190309,-0.218071
7.194216,-0.218381
7.198124,-0.217715
7.202032,-0.214271
7.205940,-0.207785
7.209848,-0.199529
7.213755,-0.191449
7.217663,-0.185080
7.221571,-0.180898
7.225479,-0.178437
7.229386,-0.176947
7.233294,-0.175997
7.237202,-0.175591
7.241110,-0.175796
7.245018,-0.176356
7.248925,-0.176698
7.252833,-0.176296
7.256741,-0.174997
7.260649,-0.173025
7.264556,-0.170722
7.268464,-0.168312
7.272372,-0.165855
7.276280,-0.163380
7.280188,-0.161046
7.284095,-0.159170
7.288003,-0.158050
7.291911,-0.157674
7.295819,-0.157595
7.299726,-0.157188
7.303634,-0.156247
7.307542,-0.155417
7.311450,-0.155929
7.315358,-0.158623
7.319265,-0.162960
7.323173,-0.166942
7.327081,-0.168276
7.330989,-0.166112
7.334896,-0.162012
7.338804,-0.159194
7.342712,-0.160262
7.346620,-0.164947
7.350528,-0.169633
7.354435,-0.169360
7.358343,-0.161170
7.362251,-0.146483
7.366159,-0.130558
7.370066,-0.119095
7.373974,-0.114216
7.377882,-0.112695
7.381790,-0.107917
7.385698,-0.094333
7.389605,-0.071415
7.393513,-0.044450
7.397421,-0.021707
7.401329,-0.009928
7.405236,-0.011004
7.409144,-0.021729
7.413052,-0.036413
7.416960,-0.050380
7.420868,-0.062095
7.424775,-0.072911
7.428683,-0.085145
7.432591,-0.100147
7.436499,-0.117647
7.440406,-0.136379
7.444314,-0.155030
7.448222,-0.172589
7.452130,-0.188054
7.456038,-0.200174
7.459945,-0.207746
7.463853,-0.210347
7.467761,-0.208854
7.471669,-0.205265
7.475576,-0.201855
7.479484,-0.200089
7.483392,-0.199845
7.487300,-0.199422
7.491208,-0.196537
7.495115,-0.189946
7.499023,-0.180594
7.502931,-0.170865
7.506839,-0.161283
7.510746,-0.146085
7.514654,-0.111390
7.518562,-0.040090
7.522470,0.075560
7.526377,0.218648
7.530285,0.339634
7.534193,0.365365
7.538101,0.226955
7.542009,-0.103439
7.545916,-0.585814
7.549824,-1.113215
7.553732,-1.545470
7.557640,-1.763016
7.561547,-1.715314
7.565455,-1.439445
7.569363,-1.039607
7.573271,-0.638949
7.577179,-0.329182
7.581086,-0.142608
7.584994,-0.056668
7.588902,-0.022423
7.592810,0.002975
7.596717,0.037853
7.600625,0.077559
7.604533,0.108791
7.608441,0.123881
7.612349,0.125956
7.616256,0.124478
7.620164,0.127268
7.624072,0.135828
7.627980,0.146515
7.631887,0.155180
7.635795,0.160835
7.639703,0.165807
7.643611,0.173174
7.647519,0.184241
7.651426,0.198047
7.655334,0.212747
7.659242,0.227249
7.663150,0.241743
7.667057,0.257043
7.670965,0.273627
7.674873,0.291249
7.678781,0.309221
7.682689,0.326904
7.686596,0.343910
7.690504,0.360004
7.694412,0.375039
7.698320,0.389116
7.702227,0.402814
7.706135,0.417147
7.710043,0.433080
7.713951,0.450805
7.717859,0.469248
7.721766,0.486171
7.725674,0.498893
7.729582,0.505271
7.733490,0.504414
7.737397,0.496755
7.741305,0.483543
7.745213,0.466149
7.749121,0.445633
7.753029,0.422663
7.756936,0.397600
7.760844,0.370543
7.764752,0.341283
7.768660,0.309292
7.772567,0.273849
7.776475,0.234310
7.780383,0.190504
7.784291,0.143091
7.788199,0.093692
7.792106,0.044579
7.796014,-0.002040
7.799922,-0.044783
7.803830,-0.083432
7.807737,-0.118554
7.811645,-0.150741
7.815553,-0.180075
7.819461,-0.206264
7.823369,-0.229187
7.827276,-0.249188
7.831184,-0.266733
7.835092,-0.281752
7.839000,-0.293359
7.842907,-0.300361
7.846815,-0.302267
7.850723,-0.300044
7.854631,-0.295981
7.858538,-0.292622
7.862446,-0.291400
7.866354,-0.291829
7.870262,-0.291844
7.874170,-0.289080
7.878077,-0.282295
7.881985,-0.272043
7.885893,-0.260258
7.889801,-0.249151
7.893708,-0.240154
7.897616,-0.233479
7.901524,-0.228377
7.905432,-0.223782
7.909340,-0.218914
7.913247,-0.213557
7.917155,-0.207980
7.921063,-0.202660
7.924971,-0.197995
7.928878,-0.194143
7.932786,-0.191033
7.936694,-0.188504
7.940602,-0.186428
7.944510,-0.184733
7.948417,-0.183379
7.952325,-0.182407
7.956233,-0.182091
7.960141,-0.182967
7.964048,-0.185548
7.967956,-0.189793
7.971864,-0.194787
7.975772,-0.199014
7.979680,-0.201166
7.983587,-0.200938
7.987495,-0.199218
7.991403,-0.197460
7.995311,-0.196655
7.999218,-0.196629
8.003126,-0.196247
8.007034,-0.194414
8.010942,-0.191142
8.014850,-0.187762
8.018757,-0.186013
8.022665,-0.186551
8.026573,-0.187972
8.030481,-0.187208
8.034388,-0.181272
8.038296,-0.169388
8.042204,-0.154008
8.046112,-0.139737
8.050020,-0.130488
8.053927,-0.126579
8.057835,-0.123924
8.061743,-0.116275
8.065651,-0.099347
8.069558,-0.074126
8.073466,-0.046962
8.077374,-0.026235
8.081282,-0.017796
8.085190,-0.022147
8.089097,-0.034961
8.093005,-0.050157
8.096913,-0.063272
8.100821,-0.073208
8.104728,-0.081829
8.108636,-0.092221
8.112544,-0.106767
8.116452,-0.125923
8.120360,-0.148073
8.124267,-0.170363
8.128175,-0.189985
8.132083,-0.205192
8.135991,-0.215502
8.139898,-0.221172
8.143806,-0.222618
8.147714,-0.220436
8.151622,-0.215991
8.155530,-0.211691
8.159437,-0.210124
8.163345,-0.212206
8.167253,-0.215841
8.171161,-0.216708
8.175068,-0.211306
8.178976,-0.200049
8.182884,-0.187054
8.186792,-0.175085
8.190699,-0.158333
8.194607,-0.119503
8.198515,-0.037320
8.202423,0.095639
8.206331,0.253774
8.210238,0.372298
8.214146,0.364637
8.218054,0.161145
8.221962,-0.248098
8.225869,-0.790952
8.229777,-1.328711
8.233685,-1.707313
8.237593,-1.821040
8.241501,-1.656267
8.245408,-1.292375
8.249316,-0.860426
8.253224,-0.483124
8.257132,-0.228095
8.261039,-0.095836
8.264947,-0.041923
8.268855,-0.014324
8.272763,0.017838
8.276671,0.057435
8.280578,0.091585
8.284486,0.109359
8.288394,0.111681
8.292302,0.109037
8.296209,0.112140
8.300117,0.124298
8.304025,0.140798
8.307933,0.154267
8.311841,0.160798
8.315748,0.162245
8.319656,0.163871
8.323564,0.170096
8.327472,0.181825
8.331379,0.196850
8.335287,0.212228
8.339195,0.226390
8.343103,0.239533
8.347011,0.252608
8.350918,0.266222
8.354826,0.280437
8.358734,0.295298
8.362642,0.311218
8.366549,0.328703
8.370457,0.347786
8.374365,0.367851
8.378273,0.388089
8.382181,0.408057
8.386088,0.427714
8.389996,0.446836
8.393904,0.464418
8.397812,0.478695
8.401719,0.487862
8.405627,0.490932
8.409535,0.488098
8.413443,0.480416
8.417351,0.469110
8.421258,0.454985
8.425166,0.438232
8.429074,0.418598
8.432982,0.395712
8.436889,0.369350
8.440797,0.339557
8.444705,0.306660
8.448613,0.271226
8.452521,0.233924
8.456428,0.195341
8.460336,0.155871
8.464244,0.115777
8.468152,0.075356
8.472059,0.035078
8.475967,-0.004416
8.479875,-0.042413
8.483783,-0.078245
8.487691,-0.111379
8.491598,-0.141466
8.495506,-0.168396
8.499414,-0.192310
8.503322,-0.213482
8.507229,-0.232050
8.511137,-0.247758
8.515045,-0.260021
8.518953,-0.268350
8.522860,-0.272872
8.526768,-0.274462
8.530676,-0.274362
8.534584,-0.273544
8.538492,-0.272309
8.542399,-0.270367
8.546307,-0.267292
8.550215,-0.263007
8.554123,-0.257968
8.558030,-0.252958
8.561938,-0.248634
8.565846,-0.245162
8.569754,-0.242158
8.573662,-0.238973
8.577569,-0.235129
8.581477,-0.230666
8.585385,-0.226194
8.589293,-0.222590
8.593200,-0.220510
8.597108,-0.220031
8.601016,-0.220630
8.604924,-0.221465
8.608832,-0.221743
8.612739,-0.221027
8.616647,-0.219385
8.620555,-0.217365
8.624463,-0.215755
8.628370,-0.215218
8.632278,-0.215967
8.636186,-0.217659
8.640094,-0.219594
8.644002,-0.221097
8.647909,-0.221837
8.651817,-0.221905
8.655725,-0.221628
8.659633,-0.221329
8.663540,-0.221198
8.667448,-0.221302
8.671356,-0.221612
8.675264,-0.221976
8.679172,-0.222121
8.683079,-0.221799
8.686987,-0.221085
8.690895,-0.220565
8.694803,-0.221055
8.698710,-0.222847
8.702618,-0.224942
8.706526,-0.225052
8.710434,-0.220736
8.714342,-0.211128
8.718249,-0.198002
8.722157,-0.185195
8.726065,-0.176441
8.729973,-0.172937
8.733880,-0.172257
8.737788,-0.169469
8.741696,-0.159908
8.745604,-0.141980
8.749512,-0.118353
8.753419,-0.094831
8.757327,-0.077578
8.761235,-0.070248
8.765143,-0.072574
8.769050,-0.081064
8.772958,-0.091257
8.776866,-0.100210
8.780774,-0.107857
8.784682,-0.116561
8.788589,-0.129181
8.792497,-0.146841
8.796405,-0.167809
8.800313,-0.188256
8.804220,-0.204450
8.808128,-0.214865
8.812036,-0.220730
8.815944,-0.224637
8.819852,-0.228324
8.823759,-0.231430
8.827667,-0.232301
8.831575,-0.230194
8.835483,-0.226854
8.839390,-0.225641
8.843298,-0.228423
8.847206,-0.232824
8.851114,-0.233033
8.855021,-0.224778
8.858929,-0.210758
8.862837,-0.200548
8.866745,-0.201992
8.870653,-0.208450
8.874560,-0.192654
8.878468,-0.117060
8.882376,0.039502
8.886284,0.252832
8.890191,0.443239
8.894099,0.498814
8.898007,0.327313
8.901915,-0.088529
8.905823,-0.664932
8.909730,-1.240221
8.913638,-1.640145
8.917546,-1.753091
8.921454,-1.575651
8.925361,-1.205212
8.929269,-0.786209
8.933177,-0.441871
8.937085,-0.228314
8.940993,-0.130850
8.944900,-0.095752
8.948808,-0.071993
8.952716,-0.037151
8.956624,0.002819
8.960531,0.031717
8.964439,0.041719
8.968347,0.039458
8.972255,0.038683
8.976163,0.048526
8.980070,0.067506
8.983978,0.086818
8.987886,0.098602
8.991794,0.101947
8.995701,0.102538
8.999609,0.107435
9.003517,0.119785
9.007425,0.137381
9.011333,0.155353
9.015240,0.170200
9.019148,0.181938
9.023056,0.193226
9.026964,0.206788
9.030871,0.223422
9.034779,0.241931
9.038687,0.260546
9.042595,0.278434
9.046503,0.296127
9.050410,0.314846
9.054318,0.335466
9.058226,0.357879
9.062134,0.380997
9.066041,0.403164
9.069949,0.422724
9.073857,0.438519
9.077765,0.450135
9.081673,0.457742
9.085580,0.461578
9.089488,0.461446
9.093396,0.456595
9.097304,0.446139
9.101211,0.429732
9.105119,0.408047
9.109027,0.382686
9.112935,0.355505
9.116843,0.327710
9.120750,0.299285
9.124658,0.269149
9.128566,0.235988
9.132474,0.199203
9.136381,0.159328
9.140289,0.117690
9.144197,0.075700
9.148105,0.034398
9.152013,-0.005529
9.155920,-0.043553
9.159828,-0.079272
9.163736,-0.112527
9.167644,-0.143423
9.171551,-0.172129
9.175459,-0.198619
9.179367,-0.222548
9.183275,-0.243290
9.187182,-0.260100
9.191090,-0.272421
9.194998,-0.280231
9.198906,-0.284217
9.202814,-0.285561
9.206721,-0.285404
9.210629,-0.284337
9.214537,-0.282290
9.218445,-0.278855
9.222352,-0.273775
9.226260,-0.267244
9.230168,-0.259871
9.234076,-0.252396
9.237984,-0.245365
9.241891,-0.238979
9.245799,-0.233181
9.249707,-0.227869
9.253615,-0.223035
9.257522,-0.218727
9.261430,-0.214963
9.265338,-0.211726
9.269246,-0.209039
9.273154,-0.206966
9.277061,-0.205475
9.280969,-0.204276
9.284877,-0.202844
9.288785,-0.200665
9.292692,-0.197565
9.296600,-0.193891
9.300508,-0.190427
9.304416,-0.188040
9.308324,-0.187227
9.312231,-0.187837
9.316139,-0.189179
9.320047,-0.190474
9.323955,-0.191303
9.327862,-0.191724
9.331770,-0.192074
9.335678,-0.192731
9.339586,-0.194023
9.343494,-0.196171
9.347401,-0.199071
9.351309,-0.202043
9.355217,-0.203926
9.359125,-0.203750
9.363032,-0.201616
9.366940,-0.199017
9.370848,-0.198019
9.374756,-0.199652
9.378664,-0.202654
9.382571,-0.203720
9.386479,-0.199442
9.390387,-0.188770
9.394295,-0.174216
9.398202,-0.160664
9.402110,-0.152321
9.406018,-0.149785
9.409926,-0.149304
9.413834,-0.144885
9.417741,-0.131964
9.421649,-0.110323
9.425557,-0.084450
9.429465,-0.061224
9.433372,-0.046456
9.437280,-0.042294
9.441188,-0.046838
9.445096,-0.055885
9.449004,-0.065564
9.452911,-0.074274
9.456819,-0.082939
9.460727,-0.093710
9.464635,-0.108113
9.468542,-0.125827
9.472450,-0.144740
9.476358,-0.162102
9.480266,-0.175991
9.484174,-0.186114
9.488081,-0.193448
9.491989,-0.198999
9.495897,-0.202712
9.499805,-0.203550
9.503712,-0.200885
9.507620,-0.196049
9.511528,-0.192340
9.515436,-0.192722
9.519343,-0.196662
9.523251,-0.199197
9.527159,-0.194329
9.531067,-0.181123
9.534975,-0.167104
9.538882,-0.163680
9.542790,-0.173865
9.546698,-0.180460
9.550606,-0.146531
9.554513,-0.034705
9.558421,0.161340
9.562329,0.392337
9.566237,0.556778
9.570145,0.539634
9.574052,0.271618
9.577960,-0.222771
9.581868,-0.819085
9.585776,-1.338062
9.589683,-1.622017
9.593591,-1.602943
9.597499,-1.326407
9.601407,-0.920324
9.605315,-0.528729
9.609222,-0.248406
9.613130,-0.100609
9.617038,-0.046126
9.620946,-0.026221
9.624853,-0.000561
9.628761,0.038500
9.632669,0.076623
9.636577,0.098555
9.640485,0.102308
9.644392,0.098646
9.648300,0.100458
9.652208,0.112716
9.656116,0.130628
9.660023,0.145671
9.663931,0.153281
9.667839,0.155950
9.671747,0.160227
9.675655,0.171049
9.679562,0.188215
9.683470,0.207316
9.687378,0.223669
9.691286,0.235803
9.695193,0.245985
9.699101,0.257960
9.703009,0.274057
9.706917,0.293836
9.710825,0.314876
9.714732,0.334705
9.718640,0.352407
9.722548,0.368973
9.726456,0.386444
9.730363,0.406531
9.734271,0.429541
9.738179,0.454134
9.742087,0.477928
9.745995,0.498545
9.749902,0.514432
9.753810,0.525025
9.757718,0.530321
9.761626,0.530382
9.765533,0.525234
9.769441,0.515163
9.773349,0.500999
9.777257,0.483953
9.781165,0.465028
9.785072,0.444411
9.788980,0.421368
9.792888,0.394774
9.796796,0.363939
9.800703,0.329120
9.804611,0.291410
9.808519,0.252176
9.812427,0.212495
9.816335,0.172940
9.820242,0.133731
9.824150,0.095042
9.828058,0.057231
9.831966,0.020843
9.835873,-0.013613
9.839781,-0.045896
9.843689,-0.076054
9.847597,-0.104157
9.851504,-0.129952
9.855412,-0.152794
9.859320,-0.171906
9.863228,-0.186805
9.867136,-0.197516
9.871043,-0.204453
9.874951,-0.208106
9.878859,-0.208872
9.882767,-0.207174
9.886674,-0.203670
9.890582,-0.199248
9.894490,-0.194698
9.898398,-0.190311
9.902306,-0.185754
9.906213,-0.180363
9.910121,-0.173666
9.914029,-0.165787
9.917937,-0.157476
9.921844,-0.149751
9.925752,-0.143381
9.929660,-0.138547
9.933568,-0.134867
9.937476,-0.131726
9.941383,-0.128644
9.945291,-0.125484
9.949199,-0.122415
9.953107,-0.119724
9.957014,-0.117579
9.960922,-0.115842
9.964830,-0.114058
9.968738,-0.111702
9.972646,-0.108550
9.976553,-0.104922
9.980461,-0.101568
9.984369,-0.099251
9.988277,-0.098338
9.992184,-0.098682
9.996092,-0.099829
10.000000,-0.101322
