time,ecg
0.000000,-0.279119
0.003908,-0.292871
0.007816,-0.308285
0.011723,-0.324761
0.015631,-0.339452
0.019539,-0.349632
0.023447,-0.355260
0.027354,-0.359463
0.031262,-0.366586
0.035170,-0.379467
0.039078,-0.398053
0.042986,-0.420148
0.046893,-0.443350
0.050801,-0.466529
0.054709,-0.489893
0.058617,-0.513907
0.062524,-0.538161
0.066432,-0.561099
0.070340,-0.580824
0.074248,-0.596342
0.078156,-0.608325
0.082063,-0.618699
0.085971,-0.629190
0.089879,-0.639666
0.093787,-0.647428
0.097694,-0.648119
0.101602,-0.637934
0.105510,-0.615857
0.109418,-0.584427
0.113326,-0.548395
0.117233,-0.512059
0.121141,-0.477038
0.125049,-0.441993
0.128957,-0.404374
0.132864,-0.362824
0.136772,-0.318536
0.140680,-0.274758
0.144588,-0.235030
0.148496,-0.201450
0.152403,-0.173980
0.156311,-0.151000
0.160219,-0.130490
0.164127,-0.111088
0.168034,-0.092508
0.171942,-0.075363
0.175850,-0.060692
0.179758,-0.049464
0.183665,-0.042191
0.187573,-0.038688
0.191481,-0.038054
0.195389,-0.038978
0.199297,-0.040315
0.203204,-0.041673
0.207112,-0.043580
0.211020,-0.047011
0.214928,-0.052510
0.218835,-0.059531
0.222743,-0.066539
0.226651,-0.071890
0.230559,-0.074921
0.234467,-0.076494
0.238374,-0.078558
0.242282,-0.082947
0.246190,-0.090172
0.250098,-0.099009
0.254005,-0.107191
0.257913,-0.112769
0.261821,-0.115198
0.265729,-0.115454
0.269637,-0.115263
0.273544,-0.116129
0.277452,-0.118807
0.281360,-0.123302
0.285268,-0.129052
0.289175,-0.135062
0.293083,-0.140073
0.296991,-0.143010
0.300899,-0.143648
0.304807,-0.143018
0.308714,-0.143012
0.312622,-0.145169
0.316530,-0.149354
0.320438,-0.153410
0.324345,-0.154370
0.328253,-0.150682
0.332161,-0.143928
0.336069,-0.138549
0.339977,-0.139337
0.343884,-0.148188
0.347792,-0.162411
0.351700,-0.175974
0.355608,-0.183023
0.359515,-0.181344
0.363423,-0.173490
0.367331,-0.164930
0.371239,-0.160629
0.375147,-0.162378
0.379054,-0.168464
0.382962,-0.175489
0.386870,-0.180734
0.390778,-0.183407
0.394685,-0.184289
0.398593,-0.184532
0.402501,-0.184791
0.406409,-0.185169
0.410317,-0.185606
0.414224,-0.186042
0.418132,-0.186211
0.422040,-0.185438
0.425948,-0.182918
0.429855,-0.178414
0.433763,-0.172763
0.437671,-0.167583
0.441579,-0.164217
0.445487,-0.162672
0.449394,-0.161523
0.453302,-0.159013
0.457210,-0.154592
0.461118,-0.149611
0.465025,-0.146442
0.468933,-0.146605
0.472841,-0.149389
0.476749,-0.152159
0.480657,-0.152204
0.484564,-0.148730
0.488472,-0.143432
0.492380,-0.139257
0.496288,-0.138355
0.500195,-0.140785
0.504103,-0.144826
0.508011,-0.148460
0.511919,-0.150761
0.515826,-0.152190
0.519734,-0.153756
0.523642,-0.155883
0.527550,-0.157981
0.531458,-0.159050
0.535365,-0.158700
0.539273,-0.157613
0.543181,-0.156925
0.547089,-0.157079
0.550996,-0.157221
0.554904,-0.155844
0.558812,-0.152242
0.562720,-0.147566
0.566628,-0.144493
0.570535,-0.145567
0.574443,-0.151339
0.578351,-0.159630
0.582259,-0.166492
0.586166,-0.168247
0.590074,-0.163345
0.593982,-0.153020
0.597890,-0.140575
0.601798,-0.129883
0.605705,-0.123932
0.609613,-0.123971
0.613521,-0.129362
0.617429,-0.137993
0.621336,-0.146994
0.625244,-0.153587
0.629152,-0.155926
0.633060,-0.153734
0.636968,-0.148445
0.640875,-0.142609
0.644783,-0.138654
0.648691,-0.137532
0.652599,-0.138095
0.656506,-0.137779
0.660414,-0.134387
0.664322,-0.127858
0.668230,-0.120656
0.672138,-0.116209
0.676045,-0.116317
0.679953,-0.119416
0.683861,-0.121231
0.687769,-0.117606
0.691676,-0.107668
0.695584,-0.095074
0.699492,-0.086295
0.703400,-0.086866
0.707308,-0.097914
0.711215,-0.115230
0.715123,-0.131590
0.719031,-0.140942
0.722939,-0.141812
0.726846,-0.137789
0.730754,-0.134859
0.734662,-0.137474
0.738570,-0.145981
0.742478,-0.156958
0.746385,-0.165916
0.750293,-0.170281
0.754201,-0.170571
0.758109,-0.169260
0.762016,-0.168569
0.765924,-0.169025
0.769832,-0.169716
0.773740,-0.169599
0.777648,-0.168484
0.781555,-0.166914
0.785463,-0.165409
0.789371,-0.164053
0.793279,-0.162868
0.797186,-0.162389
0.801094,-0.163461
0.805002,-0.166094
0.808910,-0.168402
0.812818,-0.167117
0.816725,-0.159970
0.820633,-0.148147
0.824541,-0.135893
0.828449,-0.125785
0.832356,-0.111889
0.836264,-0.076294
0.840172,0.005891
0.844080,0.153017
0.847987,0.361712
0.851895,0.600401
0.855803,0.818161
0.859711,0.966085
0.863619,1.019203
0.867526,0.985295
0.871434,0.894661
0.875342,0.777401
0.879250,0.643309
0.883157,0.477866
0.887065,0.256911
0.890973,-0.030131
0.894881,-0.364252
0.898789,-0.698863
0.902696,-0.978640
0.906604,-1.163605
0.910512,-1.244431
0.914420,-1.241565
0.918327,-1.190914
0.922235,-1.125759
0.926143,-1.064649
0.930051,-1.009531
0.933959,-0.952000
0.937866,-0.882162
0.941774,-0.795215
0.945682,-0.693761
0.949590,-0.586464
0.953497,-0.484739
0.957405,-0.398955
0.961313,-0.335339
0.965221,-0.294495
0.969129,-0.272101
0.973036,-0.261434
0.976944,-0.256349
0.980852,-0.253058
0.984760,-0.249955
0.988667,-0.246198
0.992575,-0.240557
0.996483,-0.231532
1.000391,-0.218498
1.004299,-0.202665
1.008206,-0.186946
1.012114,-0.174716
1.016022,-0.168321
1.019930,-0.168172
1.023837,-0.172731
1.027745,-0.179125
1.031653,-0.183967
1.035561,-0.184209
1.039469,-0.178004
1.043376,-0.165513
1.047284,-0.149261
1.051192,-0.133556
1.055100,-0.122844
1.059007,-0.119641
1.062915,-0.123232
1.066823,-0.130091
1.070731,-0.135929
1.074639,-0.138165
1.078546,-0.137232
1.082454,-0.135951
1.086362,-0.137455
1.090270,-0.143083
1.094177,-0.151603
1.098085,-0.160240
1.101993,-0.166707
1.105901,-0.170768
1.109809,-0.174201
1.113716,-0.179264
1.117624,-0.186892
1.121532,-0.196043
1.125440,-0.204698
1.129347,-0.211732
1.133255,-0.218203
1.137163,-0.226956
1.141071,-0.240551
1.144979,-0.258899
1.148886,-0.278470
1.152794,-0.294178
1.156702,-0.303057
1.160610,-0.307124
1.164517,-0.312906
1.168425,-0.327400
1.172333,-0.353048
1.176241,-0.385469
1.180148,-0.415924
1.184056,-0.437077
1.187964,-0.448014
1.191872,-0.454822
1.195780,-0.466084
1.199687,-0.486392
1.203595,-0.512551
1.207503,-0.535300
1.211411,-0.545322
1.215318,-0.539164
1.219226,-0.520822
1.223134,-0.498104
1.227042,-0.476768
1.230950,-0.456849
1.234857,-0.433751
1.238765,-0.402940
1.242673,-0.364457
1.246581,-0.323685
1.250488,-0.287764
1.254396,-0.260436
1.258304,-0.239350
1.262212,-0.217961
1.266120,-0.190623
1.270027,-0.157069
1.273935,-0.122935
1.277843,-0.095998
1.281751,-0.080940
1.285658,-0.076394
1.289566,-0.076242
1.293474,-0.073929
1.297382,-0.066486
1.301290,-0.055440
1.305197,-0.044393
1.309105,-0.035544
1.313013,-0.028024
1.316921,-0.019246
1.320828,-0.007975
1.324736,0.003500
1.328644,0.010068
1.332552,0.007106
1.336460,-0.005909
1.340367,-0.024221
1.344275,-0.040158
1.348183,-0.047628
1.352091,-0.045764
1.355998,-0.039273
1.359906,-0.035352
1.363814,-0.039273
1.367722,-0.051435
1.371630,-0.067403
1.375537,-0.080496
1.379445,-0.085147
1.383353,-0.079326
1.387261,-0.065245
1.391168,-0.048438
1.395076,-0.035760
1.398984,-0.032813
1.402892,-0.041490
1.406800,-0.058595
1.410707,-0.076590
1.414615,-0.086774
1.418523,-0.083716
1.422431,-0.068558
1.426338,-0.048946
1.430246,-0.035165
1.434154,-0.034506
1.438062,-0.047225
1.441970,-0.066573
1.445877,-0.082808
1.449785,-0.088645
1.453693,-0.082852
1.457601,-0.070120
1.461508,-0.057732
1.465416,-0.051405
1.469324,-0.052735
1.473232,-0.059293
1.477140,-0.066684
1.481047,-0.070987
1.484955,-0.070346
1.488863,-0.065293
1.492771,-0.058107
1.496678,-0.051649
1.500586,-0.048065
1.504494,-0.047760
1.508402,-0.049115
1.512309,-0.049290
1.516217,-0.045911
1.520125,-0.038727
1.524033,-0.030137
1.527941,-0.024007
1.531848,-0.023368
1.535756,-0.028339
1.539664,-0.035667
1.543572,-0.040331
1.547479,-0.038397
1.551387,-0.029451
1.555295,-0.017071
1.559203,-0.006967
1.563111,-0.003891
1.567018,-0.009170
1.570926,-0.020277
1.574834,-0.032497
1.578742,-0.041541
1.582649,-0.045533
1.586557,-0.045373
1.590465,-0.043550
1.594373,-0.042326
1.598281,-0.042471
1.602188,-0.043222
1.606096,-0.043360
1.610004,-0.042531
1.613912,-0.041862
1.617819,-0.043383
1.621727,-0.048619
1.625635,-0.057262
1.629543,-0.066809
1.633451,-0.073462
1.637358,-0.073857
1.641266,-0.066785
1.645174,-0.054006
1.649082,-0.039700
1.652989,-0.028627
1.656897,-0.023860
1.660805,-0.025340
1.664713,-0.030225
1.668621,-0.034889
1.672528,-0.037254
1.676436,-0.037827
1.680344,-0.038766
1.684252,-0.041783
1.688159,-0.046540
1.692067,-0.050744
1.695975,-0.051851
1.699883,-0.049131
1.703791,-0.044563
1.707698,-0.041846
1.711606,-0.044039
1.715514,-0.051348
1.719422,-0.060567
1.723329,-0.066688
1.727237,-0.065741
1.731145,-0.057152
1.735053,-0.044155
1.738961,-0.032069
1.742868,-0.025537
1.746776,-0.026321
1.750684,-0.032786
1.754592,-0.041122
1.758499,-0.047489
1.762407,-0.049949
1.766315,-0.049310
1.770223,-0.048488
1.774131,-0.050629
1.778038,-0.056862
1.781946,-0.065008
1.785854,-0.070275
1.789762,-0.067869
1.793669,-0.056103
1.797577,-0.038037
1.801485,-0.020402
1.805393,-0.010248
1.809301,-0.011239
1.813208,-0.021789
1.817116,-0.036113
1.821024,-0.047495
1.824932,-0.051848
1.828839,-0.049563
1.832747,-0.044771
1.836655,-0.042599
1.840563,-0.046052
1.844470,-0.054292
1.848378,-0.063280
1.852286,-0.068412
1.856194,-0.067559
1.860102,-0.062585
1.864009,-0.058292
1.867917,-0.059350
1.871825,-0.067148
1.875733,-0.078638
1.879640,-0.088071
1.883548,-0.090594
1.887456,-0.085401
1.891364,-0.076261
1.895272,-0.068964
1.899179,-0.067410
1.903087,-0.071138
1.906995,-0.076104
1.910903,-0.078047
1.914810,-0.075736
1.918718,-0.071523
1.922626,-0.068903
1.926534,-0.069390
1.930442,-0.071507
1.934349,-0.072620
1.938257,-0.071306
1.942165,-0.066928
1.946073,-0.055495
1.949980,-0.025017
1.953888,0.044165
1.957796,0.170953
1.961704,0.359935
1.965612,0.591086
1.969519,0.821141
1.973427,0.998479
1.977335,1.084269
1.981243,1.067497
1.985150,0.964695
1.989058,0.804995
1.992966,0.611034
1.996874,0.388836
2.000782,0.133157
2.004689,-0.156554
2.008597,-0.462200
2.012505,-0.746283
2.016413,-0.966110
2.020320,-1.094016
2.024228,-1.130460
2.028136,-1.101805
2.032044,-1.044891
2.035952,-0.988609
2.039859,-0.943336
2.043767,-0.902622
2.047675,-0.853281
2.051583,-0.785909
2.055490,-0.699734
2.059398,-0.601161
2.063306,-0.499473
2.067214,-0.403507
2.071122,-0.320450
2.075029,-0.255518
2.078937,-0.211037
2.082845,-0.185118
2.086753,-0.171516
2.090660,-0.161759
2.094568,-0.148819
2.098476,-0.130070
2.102384,-0.107666
2.106292,-0.086388
2.110199,-0.070751
2.114107,-0.063211
2.118015,-0.063898
2.121923,-0.070996
2.125830,-0.080974
2.129738,-0.088959
2.133646,-0.090163
2.137554,-0.082441
2.141462,-0.068354
2.145369,-0.054548
2.149277,-0.047872
2.153185,-0.050517
2.157093,-0.057950
2.161000,-0.061830
2.164908,-0.056182
2.168816,-0.042184
2.172724,-0.027603
2.176631,-0.021000
2.180539,-0.025149
2.184447,-0.034948
2.188355,-0.041606
2.192263,-0.039787
2.196170,-0.031965
2.200078,-0.026419
2.203986,-0.030428
2.207894,-0.044066
2.211801,-0.059613
2.215709,-0.067247
2.219617,-0.062777
2.223525,-0.051461
2.227433,-0.044793
2.231340,-0.052489
2.235248,-0.075520
2.239156,-0.105346
2.243064,-0.129828
2.246971,-0.141410
2.250879,-0.141646
2.254787,-0.139099
2.258695,-0.142601
2.262603,-0.155068
2.266510,-0.172264
2.270418,-0.186956
2.274326,-0.194979
2.278234,-0.198630
2.282141,-0.205152
2.286049,-0.221712
2.289957,-0.250520
2.293865,-0.287232
2.297773,-0.323311
2.301680,-0.350598
2.305588,-0.365370
2.309496,-0.369831
2.313404,-0.370531
2.317311,-0.374661
2.321219,-0.386076
2.325127,-0.403016
2.329035,-0.418782
2.332943,-0.425192
2.336850,-0.417011
2.340758,-0.394757
2.344666,-0.364057
2.348574,-0.331937
2.352481,-0.302560
2.356389,-0.275376
2.360297,-0.246915
2.364205,-0.214744
2.368113,-0.180463
2.372020,-0.149243
2.375928,-0.126090
2.379836,-0.111650
2.383744,-0.100969
2.387651,-0.086479
2.391559,-0.063245
2.395467,-0.032692
2.399375,-0.002016
2.403283,0.020368
2.407190,0.030083
2.411098,0.029096
2.415006,0.023789
2.418914,0.020642
2.422821,0.022827
2.426729,0.029801
2.430637,0.039387
2.434545,0.050017
2.438453,0.061098
2.442360,0.071470
2.446268,0.077961
2.450176,0.076166
2.454084,0.063652
2.457991,0.043299
2.461899,0.023641
2.465807,0.014918
2.469715,0.022795
2.473623,0.043930
2.477530,0.066840
2.481438,0.078072
2.485346,0.070009
2.489254,0.045346
2.493161,0.015370
2.497069,-0.006721
2.500977,-0.013098
2.504885,-0.004695
2.508792,0.010870
2.512700,0.024778
2.516608,0.031915
2.520516,0.032220
2.524424,0.028469
2.528331,0.022999
2.532239,0.016218
2.536147,0.007735
2.540055,-0.001461
2.543962,-0.008218
2.547870,-0.008932
2.551778,-0.002526
2.555686,0.007790
2.559594,0.015729
2.563501,0.015678
2.567409,0.006539
2.571317,-0.007016
2.575225,-0.016967
2.579132,-0.016656
2.583040,-0.004869
2.586948,0.013258
2.590856,0.029032
2.594764,0.034927
2.598671,0.028446
2.602579,0.013134
2.606487,-0.003372
2.610395,-0.012809
2.614302,-0.009544
2.618210,0.007405
2.622118,0.033886
2.626026,0.061622
2.629934,0.080686
2.633841,0.083115
2.637749,0.066619
2.641657,0.036643
2.645565,0.005081
2.649472,-0.014598
2.653380,-0.013855
2.657288,0.006308
2.661196,0.035552
2.665104,0.059541
2.669011,0.067579
2.672919,0.058194
2.676827,0.039394
2.680735,0.023494
2.684642,0.019698
2.688550,0.028966
2.692458,0.044185
2.696366,0.055245
2.700274,0.055579
2.704181,0.046061
2.708089,0.034001
2.711997,0.028195
2.715905,0.033354
2.719812,0.047406
2.723720,0.063103
2.727628,0.072561
2.731536,0.071651
2.735444,0.061636
2.739351,0.047565
2.743259,0.035046
2.747167,0.027727
2.751075,0.026696
2.754982,0.031382
2.758890,0.040549
2.762798,0.052432
2.766706,0.064232
2.770614,0.072078
2.774521,0.072321
2.778429,0.063886
2.782337,0.050069
2.786245,0.037926
2.790152,0.034704
2.794060,0.043030
2.797968,0.058143
2.801876,0.069742
2.805784,0.068121
2.809691,0.050912
2.813599,0.025698
2.817507,0.006045
2.821415,0.003033
2.825322,0.017729
2.829230,0.039895
2.833138,0.054184
2.837046,0.050014
2.840953,0.028626
2.844861,0.002526
2.848769,-0.012440
2.852677,-0.007182
2.856585,0.015058
2.860492,0.041152
2.864400,0.056612
2.868308,0.054319
2.872216,0.037878
2.876123,0.018040
2.880031,0.005325
2.883939,0.004045
2.887847,0.011294
2.891755,0.020614
2.895662,0.026977
2.899570,0.029448
2.903478,0.030326
2.907386,0.032333
2.911293,0.036472
2.915201,0.041948
2.919109,0.047493
2.923017,0.052458
2.926925,0.056679
2.930832,0.059635
2.934740,0.060140
2.938648,0.057164
2.942556,0.051050
2.946463,0.043767
2.950371,0.037662
2.954279,0.033697
2.958187,0.030796
2.962095,0.027028
2.966002,0.021647
2.969910,0.016139
2.973818,0.013190
2.977726,0.014324
2.981633,0.018218
2.985541,0.021305
2.989449,0.020424
2.993357,0.015491
2.997265,0.009963
3.001172,0.008521
3.005080,0.013652
3.008988,0.023711
3.012896,0.033892
3.016803,0.039268
3.020711,0.037652
3.024619,0.030524
3.028527,0.021885
3.032435,0.016257
3.036342,0.016940
3.040250,0.024799
3.044158,0.037420
3.048066,0.049156
3.051973,0.053375
3.055881,0.047454
3.059789,0.038550
3.063697,0.045734
3.067605,0.094646
3.071512,0.205076
3.075420,0.377523
3.079328,0.587172
3.083236,0.790289
3.087143,0.940264
3.091051,1.004019
3.094959,0.969336
3.098867,0.840471
3.102775,0.628110
3.106682,0.343475
3.110590,0.001907
3.114498,-0.368023
3.118406,-0.720255
3.122313,-1.000053
3.126221,-1.164232
3.130129,-1.201194
3.134037,-1.137150
3.137945,-1.023177
3.141852,-0.910361
3.145760,-0.828026
3.149668,-0.777178
3.153576,-0.740444
3.157483,-0.699100
3.161391,-0.644865
3.165299,-0.580226
3.169207,-0.510583
3.173114,-0.436956
3.177022,-0.355752
3.180930,-0.264948
3.184838,-0.170285
3.188746,-0.085264
3.192653,-0.024148
3.196561,0.006984
3.200469,0.014465
3.204377,0.013418
3.208284,0.018783
3.212192,0.037042
3.216100,0.063825
3.220008,0.088342
3.223916,0.101139
3.227823,0.099983
3.231731,0.090511
3.235639,0.081943
3.239547,0.081141
3.243454,0.088852
3.247362,0.100143
3.251270,0.108241
3.255178,0.109021
3.259086,0.103314
3.262993,0.095832
3.266901,0.091764
3.270809,0.093455
3.274717,0.099318
3.278624,0.105448
3.282532,0.108583
3.286440,0.108304
3.290348,0.107063
3.294256,0.108221
3.298163,0.113566
3.302071,0.121969
3.305979,0.129927
3.309887,0.133497
3.313794,0.130366
3.317702,0.120917
3.321610,0.107920
3.325518,0.095229
3.329426,0.086252
3.333333,0.082834
3.337241,0.084839
3.341149,0.090427
3.345057,0.096814
3.348964,0.101187
3.352872,0.101384
3.356780,0.096163
3.360688,0.085167
3.364596,0.068859
3.368503,0.048549
3.372411,0.026309
3.376319,0.004496
3.380227,-0.015140
3.384134,-0.032334
3.388042,-0.048437
3.391950,-0.065452
3.395858,-0.084411
3.399766,-0.104240
3.403673,-0.122080
3.407581,-0.135039
3.411489,-0.142341
3.415397,-0.146449
3.419304,-0.152325
3.423212,-0.165085
3.427120,-0.187213
3.431028,-0.216848
3.434936,-0.248059
3.438843,-0.273123
3.442751,-0.285815
3.446659,-0.284242
3.450567,-0.271809
3.454474,-0.255643
3.458382,-0.242953
3.462290,-0.237050
3.466198,-0.235280
3.470106,-0.230408
3.474013,-0.214986
3.477921,-0.186178
3.481829,-0.147851
3.485737,-0.108280
3.489644,-0.074858
3.493552,-0.049465
3.497460,-0.027837
3.501368,-0.003352
3.505275,0.027652
3.509183,0.063044
3.513091,0.096505
3.516999,0.122101
3.520907,0.138197
3.524814,0.147823
3.528722,0.155557
3.532630,0.163684
3.536538,0.170790
3.540445,0.173785
3.544353,0.171457
3.548261,0.166449
3.552169,0.163912
3.556077,0.167871
3.559984,0.178159
3.563892,0.190231
3.567800,0.197973
3.571708,0.197420
3.575615,0.188914
3.579523,0.176531
3.583431,0.165528
3.587339,0.159596
3.591247,0.159372
3.595154,0.162672
3.599062,0.165960
3.602970,0.166182
3.606878,0.162159
3.610785,0.154974
3.614693,0.147272
3.618601,0.141852
3.622509,0.140308
3.626417,0.142431
3.630324,0.146598
3.634232,0.150797
3.638140,0.153571
3.642048,0.154353
3.645955,0.153190
3.649863,0.150363
3.653771,0.146348
3.657679,0.142109
3.661587,0.139241
3.665494,0.139492
3.669402,0.143783
3.673310,0.151385
3.677218,0.159997
3.681125,0.166867
3.685033,0.170315
3.688941,0.170613
3.692849,0.169525
3.696757,0.168793
3.700664,0.168718
3.704572,0.168025
3.708480,0.165187
3.712388,0.160083
3.716295,0.154489
3.720203,0.150804
3.724111,0.150045
3.728019,0.150891
3.731927,0.150737
3.735834,0.147938
3.739742,0.143344
3.743650,0.139797
3.747558,0.139940
3.751465,0.144074
3.755373,0.149752
3.759281,0.153484
3.763189,0.153287
3.767097,0.150149
3.771004,0.147257
3.774912,0.147543
3.778820,0.151383
3.782728,0.156265
3.786635,0.158688
3.790543,0.156878
3.794451,0.152235
3.798359,0.148410
3.802267,0.148681
3.806174,0.153557
3.810082,0.160270
3.813990,0.164448
3.817898,0.162763
3.821805,0.154845
3.825713,0.143419
3.829621,0.132825
3.833529,0.126932
3.837436,0.127554
3.841344,0.134003
3.845252,0.143733
3.849160,0.153545
3.853068,0.160686
3.856975,0.163443
3.860883,0.161245
3.864791,0.154591
3.868699,0.144956
3.872606,0.134529
3.876514,0.125548
3.880422,0.119345
3.884330,0.115676
3.888238,0.112910
3.892145,0.109157
3.896053,0.103710
3.899961,0.097816
3.903869,0.094136
3.907776,0.095100
3.911684,0.101173
3.915592,0.110223
3.919500,0.118499
3.923408,0.122669
3.927315,0.121609
3.931223,0.116836
3.935131,0.111399
3.939039,0.108026
3.942946,0.107713
3.946854,0.109562
3.950762,0.111760
3.954670,0.112841
3.958578,0.112343
3.962485,0.110584
3.966393,0.108091
3.970301,0.105344
3.974209,0.103016
3.978116,0.102220
3.982024,0.104180
3.985932,0.109356
3.989840,0.116749
3.993748,0.124209
3.997655,0.129843
4.001563,0.133557
4.005471,0.137409
4.009379,0.144139
4.013286,0.154761
4.017194,0.167064
4.021102,0.176443
4.025010,0.178728
4.028918,0.173024
4.032825,0.162366
4.036733,0.151614
4.040641,0.144152
4.044549,0.139916
4.048456,0.136179
4.052364,0.130374
4.056272,0.122593
4.060180,0.115751
4.064088,0.113237
4.067995,0.115956
4.071903,0.121144
4.075811,0.124029
4.079719,0.121188
4.083626,0.113170
4.087534,0.104416
4.091442,0.100471
4.095350,0.104387
4.099258,0.114827
4.103165,0.127082
4.107073,0.136152
4.110981,0.139617
4.114889,0.138357
4.118796,0.134942
4.122704,0.131244
4.126612,0.127299
4.130520,0.122171
4.134428,0.115786
4.138335,0.109740
4.142243,0.106037
4.146151,0.104673
4.150059,0.102595
4.153966,0.096114
4.157874,0.086318
4.161782,0.084020
4.165690,0.109631
4.169597,0.185692
4.173505,0.324708
4.177413,0.519047
4.181321,0.739663
4.185229,0.945420
4.189136,1.098014
4.193044,1.173649
4.196952,1.164946
4.200860,1.073647
4.204767,0.901557
4.208675,0.648489
4.212583,0.320231
4.216491,-0.059349
4.220399,-0.443112
4.224306,-0.770188
4.228214,-0.988018
4.232122,-1.074771
4.236030,-1.048076
4.239937,-0.954022
4.243845,-0.843080
4.247753,-0.747854
4.251661,-0.675426
4.255569,-0.616234
4.259476,-0.560081
4.263384,-0.506308
4.267292,-0.461587
4.271200,-0.429481
4.275107,-0.402307
4.279015,-0.363195
4.282923,-0.297249
4.286831,-0.203076
4.290739,-0.095623
4.294646,0.001961
4.298554,0.071531
4.302462,0.109091
4.306370,0.124400
4.310277,0.132602
4.314185,0.144487
4.318093,0.161688
4.322001,0.178686
4.325909,0.188730
4.329816,0.188982
4.333724,0.181939
4.337632,0.173370
4.341540,0.169028
4.345447,0.172294
4.349355,0.183453
4.353263,0.200120
4.357171,0.218193
4.361079,0.233070
4.364986,0.241109
4.368894,0.240949
4.372802,0.233990
4.376710,0.223567
4.380617,0.213215
4.384525,0.205091
4.388433,0.199483
4.392341,0.195490
4.396249,0.192144
4.400156,0.189133
4.404064,0.186775
4.407972,0.185495
4.411880,0.185325
4.415787,0.185782
4.419695,0.186143
4.423603,0.185822
4.427511,0.184507
4.431419,0.181928
4.435326,0.177492
4.439234,0.170282
4.443142,0.159704
4.447050,0.146483
4.450957,0.133120
4.454865,0.123027
4.458773,0.118453
4.462681,0.118414
4.466589,0.118264
4.470496,0.111709
4.474404,0.094467
4.478312,0.067415
4.482220,0.036964
4.486127,0.011910
4.490035,-0.001694
4.493943,-0.004512
4.497851,-0.004000
4.501758,-0.010207
4.505666,-0.029805
4.509574,-0.062193
4.513482,-0.100183
4.517390,-0.134684
4.521297,-0.160112
4.525205,-0.176972
4.529113,-0.190248
4.533021,-0.205196
4.536928,-0.223657
4.540836,-0.243231
4.544744,-0.259299
4.548652,-0.267924
4.552560,-0.267484
4.556467,-0.258286
4.560375,-0.241181
4.564283,-0.216758
4.568191,-0.185846
4.572098,-0.150607
4.576006,-0.114722
4.579914,-0.081867
4.583822,-0.053272
4.587730,-0.026392
4.591637,0.003722
4.595545,0.040721
4.599453,0.083423
4.603361,0.125257
4.607268,0.157630
4.611176,0.175207
4.615084,0.179499
4.618992,0.178130
4.622900,0.180137
4.626807,0.190517
4.630715,0.207677
4.634623,0.225318
4.638531,0.237058
4.642438,0.240398
4.646346,0.237468
4.650254,0.232612
4.654162,0.229144
4.658070,0.227789
4.661977,0.227594
4.665885,0.227935
4.669793,0.229515
4.673701,0.233406
4.677608,0.239137
4.681516,0.243867
4.685424,0.243804
4.689332,0.236993
4.693240,0.225178
4.697147,0.213016
4.701055,0.205066
4.704963,0.202820
4.708871,0.204060
4.712778,0.204921
4.716686,0.202963
4.720594,0.198819
4.724502,0.195233
4.728410,0.194390
4.732317,0.195806
4.736225,0.196569
4.740133,0.193783
4.744041,0.187177
4.747948,0.179595
4.751856,0.174808
4.755764,0.174353
4.759672,0.176048
4.763580,0.175568
4.767487,0.169965
4.771395,0.160379
4.775303,0.151665
4.779211,0.148963
4.783118,0.153694
4.787026,0.162058
4.790934,0.167441
4.794842,0.165176
4.798750,0.156205
4.802657,0.146816
4.806565,0.144448
4.810473,0.152445
4.814381,0.167454
4.818288,0.181392
4.822196,0.186672
4.826104,0.181127
4.830012,0.169226
4.833919,0.158736
4.837827,0.155165
4.841735,0.157940
4.845643,0.161135
4.849551,0.158307
4.853458,0.147956
4.857366,0.135412
4.861274,0.129447
4.865182,0.135852
4.869089,0.152742
4.872997,0.171368
4.876905,0.182122
4.880813,0.181395
4.884721,0.173980
4.888628,0.169042
4.892536,0.172608
4.896444,0.182469
4.900352,0.189700
4.904259,0.185866
4.908167,0.170339
4.912075,0.151768
4.915983,0.142201
4.919891,0.148192
4.923798,0.165777
4.927706,0.183273
4.931614,0.189837
4.935522,0.183273
4.939429,0.171264
4.943337,0.165286
4.947245,0.171936
4.951153,0.188178
4.955061,0.203782
4.958968,0.208776
4.962876,0.200197
4.966784,0.183422
4.970692,0.167702
4.974599,0.159729
4.978507,0.159990
4.982415,0.163963
4.986323,0.166426
4.990231,0.165221
4.994138,0.161931
4.998046,0.159774
5.001954,0.160994
5.005862,0.165752
5.009769,0.172754
5.013677,0.180353
5.017585,0.187006
5.021493,0.191096
5.025401,0.191021
5.029308,0.186101
5.033216,0.177704
5.037124,0.169290
5.041032,0.164712
5.044939,0.165612
5.048847,0.169886
5.052755,0.172716
5.056663,0.169803
5.060571,0.160612
5.064478,0.149145
5.068386,0.141545
5.072294,0.142209
5.076202,0.151215
5.080109,0.164733
5.084017,0.177732
5.087925,0.186777
5.091833,0.191072
5.095741,0.191639
5.099648,0.189895
5.103556,0.186896
5.107464,0.183502
5.111372,0.180738
5.115279,0.179635
5.119187,0.180573
5.123095,0.182786
5.127003,0.184617
5.130911,0.184427
5.134818,0.181485
5.138726,0.176206
5.142634,0.169638
5.146542,0.162762
5.150449,0.156195
5.154357,0.150414
5.158265,0.146004
5.162173,0.143429
5.166081,0.142441
5.169988,0.141827
5.173896,0.140027
5.177804,0.136346
5.181712,0.131689
5.185619,0.128055
5.189527,0.127090
5.193435,0.128937
5.197343,0.132371
5.201250,0.135990
5.205158,0.139235
5.209066,0.142270
5.212974,0.144968
5.216882,0.146241
5.220789,0.144664
5.224697,0.139962
5.228605,0.133758
5.232513,0.128425
5.236420,0.124942
5.240328,0.122402
5.244236,0.121138
5.248144,0.128120
5.252052,0.159880
5.255959,0.238186
5.259867,0.378207
5.263775,0.575291
5.267683,0.799642
5.271590,1.004677
5.275498,1.145974
5.279406,1.199714
5.283314,1.168677
5.287222,1.071975
5.291129,0.926389
5.295037,0.733668
5.298945,0.483995
5.302853,0.173527
5.306760,-0.177438
5.310668,-0.520758
5.314576,-0.796522
5.318484,-0.959957
5.322392,-1.002091
5.326299,-0.951074
5.330207,-0.854236
5.334115,-0.753530
5.338023,-0.669965
5.341930,-0.604446
5.345838,-0.550048
5.349746,-0.503703
5.353654,-0.468321
5.357562,-0.445861
5.361469,-0.429692
5.365377,-0.404474
5.369285,-0.354778
5.373193,-0.275898
5.377100,-0.178283
5.381008,-0.082012
5.384916,-0.005386
5.388824,0.044226
5.392732,0.071549
5.396639,0.087211
5.400547,0.099868
5.404455,0.112303
5.408363,0.123062
5.412270,0.130742
5.416178,0.136724
5.420086,0.144311
5.423994,0.155550
5.427902,0.168799
5.431809,0.179203
5.435717,0.181799
5.439625,0.174991
5.443533,0.162027
5.447440,0.149599
5.451348,0.144582
5.455256,0.150698
5.459164,0.166635
5.463072,0.186311
5.466979,0.201268
5.470887,0.204431
5.474795,0.193679
5.478703,0.173322
5.482610,0.152344
5.486518,0.139963
5.490426,0.140843
5.494334,0.152681
5.498242,0.167659
5.502149,0.176906
5.506057,0.175293
5.509965,0.163702
5.513873,0.147503
5.517780,0.132510
5.521688,0.121293
5.525596,0.112379
5.529504,0.102634
5.533411,0.090724
5.537319,0.078733
5.541227,0.070560
5.545135,0.068326
5.549043,0.069660
5.552950,0.068130
5.556858,0.056795
5.560766,0.032576
5.564674,-0.001453
5.568581,-0.037422
5.572489,-0.066868
5.576397,-0.085234
5.580305,-0.093993
5.584213,-0.099307
5.588120,-0.108327
5.592028,-0.125486
5.595936,-0.150855
5.599844,-0.181021
5.603751,-0.211441
5.607659,-0.238628
5.611567,-0.261105
5.615475,-0.279131
5.619383,-0.293873
5.623290,-0.306639
5.627198,-0.318319
5.631106,-0.328851
5.635014,-0.336644
5.638921,-0.338354
5.642829,-0.329619
5.646737,-0.306944
5.650645,-0.269961
5.654553,-0.222592
5.658460,-0.171990
5.662368,-0.125504
5.666276,-0.087284
5.670184,-0.056576
5.674091,-0.028770
5.677999,0.001427
5.681907,0.036663
5.685815,0.075517
5.689723,0.113699
5.693630,0.146840
5.697538,0.172727
5.701446,0.191462
5.705354,0.203787
5.709261,0.209417
5.713169,0.207199
5.717077,0.197174
5.720985,0.182724
5.724893,0.170508
5.728800,0.167476
5.732708,0.176562
5.736616,0.194067
5.740524,0.210970
5.744431,0.217873
5.748339,0.210612
5.752247,0.192830
5.756155,0.173688
5.760063,0.162183
5.763970,0.161839
5.767878,0.169311
5.771786,0.177618
5.775694,0.181448
5.779601,0.180550
5.783509,0.178749
5.787417,0.179602
5.791325,0.182427
5.795233,0.182191
5.799140,0.173638
5.803048,0.156451
5.806956,0.137155
5.810864,0.125875
5.814771,0.130009
5.818679,0.149280
5.822587,0.175588
5.826495,0.197561
5.830403,0.206611
5.834310,0.200746
5.838218,0.184370
5.842126,0.165042
5.846034,0.149568
5.849941,0.141466
5.853849,0.140423
5.857757,0.143216
5.861665,0.145341
5.865572,0.142926
5.869480,0.134527
5.873388,0.122155
5.877296,0.110714
5.881204,0.105639
5.885111,0.109673
5.889019,0.120727
5.892927,0.132552
5.896835,0.138363
5.900742,0.135310
5.904650,0.126605
5.908558,0.119423
5.912466,0.119706
5.916374,0.127528
5.920281,0.136537
5.924189,0.138186
5.928097,0.127960
5.932005,0.109190
5.935912,0.091631
5.939820,0.085600
5.943728,0.095612
5.947636,0.117729
5.951544,0.142195
5.955451,0.159266
5.959359,0.164225
5.963267,0.158606
5.967175,0.147609
5.971082,0.136251
5.974990,0.127102
5.978898,0.120687
5.982806,0.117320
5.986714,0.118229
5.990621,0.124753
5.994529,0.136355
5.998437,0.149396
6.002345,0.158181
6.006252,0.157990
6.010160,0.148121
6.014068,0.132720
6.017976,0.118626
6.021884,0.111486
6.025791,0.112638
6.029699,0.118740
6.033607,0.124288
6.037515,0.125267
6.041422,0.121536
6.045330,0.116549
6.049238,0.114798
6.053146,0.118745
6.057054,0.127118
6.060961,0.135493
6.064869,0.138729
6.068777,0.133825
6.072685,0.121592
6.076592,0.106266
6.080500,0.093391
6.084408,0.087214
6.088316,0.088956
6.092224,0.096649
6.096131,0.106362
6.100039,0.114038
6.103947,0.117123
6.107855,0.115409
6.111762,0.110785
6.115670,0.105973
6.119578,0.102807
6.123486,0.101064
6.127394,0.098736
6.131301,0.093743
6.135209,0.085952
6.139117,0.077922
6.143025,0.073545
6.146932,0.075378
6.150840,0.082584
6.154748,0.091199
6.158656,0.096739
6.162564,0.097377
6.166471,0.095300
6.170379,0.095112
6.174287,0.100256
6.178195,0.110032
6.182102,0.119504
6.186010,0.122552
6.189918,0.116051
6.193826,0.102247
6.197733,0.087697
6.201641,0.079456
6.205549,0.081024
6.209457,0.090565
6.213365,0.102341
6.217272,0.110255
6.221180,0.111209
6.225088,0.106312
6.228996,0.099531
6.232903,0.094947
6.236811,0.094383
6.240719,0.096710
6.244627,0.098915
6.248535,0.098036
6.252442,0.092802
6.256350,0.084203
6.260258,0.074926
6.264166,0.068069
6.268073,0.065686
6.271981,0.067770
6.275889,0.072284
6.279797,0.076419
6.283705,0.078493
6.287612,0.079077
6.291520,0.080238
6.295428,0.083194
6.299336,0.086277
6.303243,0.085258
6.307151,0.076467
6.311059,0.060583
6.314967,0.043802
6.318875,0.034664
6.322782,0.038406
6.326690,0.053550
6.330598,0.074564
6.334506,0.099694
6.338413,0.137912
6.342321,0.208014
6.346229,0.327891
6.350137,0.499737
6.354045,0.701373
6.357952,0.890735
6.361860,1.021760
6.365768,1.061764
6.369676,0.999641
6.373583,0.841583
6.377491,0.600826
6.381399,0.292016
6.385307,-0.064505
6.389215,-0.433612
6.393122,-0.763119
6.397030,-0.996323
6.400938,-1.095666
6.404846,-1.063124
6.408753,-0.942250
6.412661,-0.797862
6.416569,-0.684482
6.420477,-0.622655
6.424385,-0.597047
6.428292,-0.575312
6.432200,-0.533147
6.436108,-0.468288
6.440016,-0.395898
6.443923,-0.331907
6.447831,-0.278802
6.451739,-0.224749
6.455647,-0.155510
6.459555,-0.068618
6.463462,0.021814
6.467370,0.093362
6.471278,0.130095
6.475186,0.132775
6.479093,0.117363
6.483001,0.103774
6.486909,0.103607
6.490817,0.115302
6.494725,0.128852
6.498632,0.135114
6.502540,0.132352
6.506448,0.125863
6.510356,0.122271
6.514263,0.123725
6.518171,0.126478
6.522079,0.124343
6.525987,0.113793
6.529894,0.096691
6.533802,0.078885
6.537710,0.066209
6.541618,0.061062
6.545526,0.061863
6.549433,0.065176
6.553341,0.068413
6.557249,0.071019
6.561157,0.073641
6.565064,0.076472
6.568972,0.078408
6.572880,0.077749
6.576788,0.073800
6.580696,0.067996
6.584603,0.063472
6.588511,0.063155
6.592419,0.067632
6.596327,0.074406
6.600234,0.079312
6.604142,0.079325
6.608050,0.074847
6.611958,0.069777
6.615866,0.069075
6.619773,0.075278
6.623681,0.086233
6.627589,0.095755
6.631497,0.097138
6.635404,0.087506
6.639312,0.070134
6.643220,0.052846
6.647128,0.043158
6.651036,0.043217
6.654943,0.048072
6.658851,0.048775
6.662759,0.038443
6.666667,0.017182
6.670574,-0.007655
6.674482,-0.026271
6.678390,-0.033166
6.682298,-0.031228
6.686206,-0.030229
6.690113,-0.040506
6.694021,-0.065929
6.697929,-0.100934
6.701837,-0.133804
6.705744,-0.154123
6.709652,-0.159409
6.713560,-0.156374
6.717468,-0.155961
6.721376,-0.165641
6.725283,-0.184398
6.729191,-0.203830
6.733099,-0.214367
6.737007,-0.211925
6.740914,-0.200227
6.744822,-0.187384
6.748730,-0.179618
6.752638,-0.176892
6.756546,-0.173490
6.760453,-0.162729
6.764361,-0.142026
6.768269,-0.114691
6.772177,-0.087578
6.776084,-0.066860
6.779992,-0.055125
6.783900,-0.051428
6.787808,-0.053252
6.791716,-0.058093
6.795623,-0.063403
6.799531,-0.065832
6.803439,-0.061766
6.807347,-0.049769
6.811254,-0.033108
6.815162,-0.019484
6.819070,-0.017051
6.822978,-0.029065
6.826886,-0.051192
6.830793,-0.073739
6.834701,-0.087348
6.838609,-0.088093
6.842517,-0.078463
6.846424,-0.063942
6.850332,-0.048115
6.854240,-0.030121
6.858148,-0.006195
6.862055,0.026264
6.865963,0.065568
6.869871,0.106075
6.873779,0.141473
6.877687,0.168065
6.881594,0.185306
6.885502,0.193443
6.889410,0.190868
6.893318,0.174179
6.897225,0.141602
6.901133,0.097186
6.905041,0.051847
6.908949,0.019237
6.912857,0.008369
6.916764,0.017829
6.920672,0.035953
6.924580,0.047482
6.928488,0.042673
6.932395,0.022982
6.936303,-0.000336
6.940211,-0.013657
6.944119,-0.009506
6.948027,0.009207
6.951934,0.031506
6.955842,0.045215
6.959750,0.043812
6.963658,0.029309
6.967565,0.010098
6.971473,-0.004270
6.975381,-0.008061
6.979289,-0.001509
6.983197,0.010502
6.987104,0.021887
6.991012,0.028747
6.994920,0.030802
6.998828,0.030343
7.002735,0.029739
7.006643,0.029366
7.010551,0.027394
7.014459,0.021478
7.018367,0.011022
7.022274,-0.001785
7.026182,-0.013038
7.030090,-0.019674
7.033998,-0.021637
7.037905,-0.021956
7.041813,-0.024515
7.045721,-0.031107
7.049629,-0.040124
7.053537,-0.048123
7.057444,-0.053266
7.061352,-0.057816
7.065260,-0.067190
7.069168,-0.085595
7.073075,-0.111362
7.076983,-0.136019
7.080891,-0.148827
7.084799,-0.144155
7.088707,-0.126337
7.092614,-0.107991
7.096522,-0.102486
7.100430,-0.115685
7.104338,-0.142728
7.108245,-0.171881
7.112153,-0.192333
7.116061,-0.200259
7.119969,-0.199209
7.123877,-0.195399
7.127784,-0.192173
7.131692,-0.187978
7.135600,-0.179014
7.139508,-0.163827
7.143415,-0.145770
7.147323,-0.131268
7.151231,-0.125396
7.155139,-0.128365
7.159047,-0.135592
7.162954,-0.141051
7.166862,-0.141123
7.170770,-0.136117
7.174678,-0.128772
7.178585,-0.121518
7.182493,-0.114896
7.186401,-0.108151
7.190309,-0.100924
7.194216,-0.094203
7.198124,-0.089717
7.202032,-0.088614
7.205940,-0.090904
7.209848,-0.096201
7.213755,-0.104868
7.217663,-0.118092
7.221571,-0.136393
7.225479,-0.157708
7.229386,-0.176988
7.233294,-0.188377
7.237202,-0.188893
7.241110,-0.180906
7.245018,-0.171095
7.248925,-0.165995
7.252833,-0.167038
7.256741,-0.168816
7.260649,-0.162258
7.264556,-0.140812
7.268464,-0.105345
7.272372,-0.064249
7.276280,-0.028601
7.280188,-0.005658
7.284095,0.004991
7.288003,0.010234
7.291911,0.018296
7.295819,0.033270
7.299726,0.052920
7.303634,0.070850
7.307542,0.081119
7.311450,0.081946
7.315358,0.076153
7.319265,0.068624
7.323173,0.063069
7.327081,0.060438
7.330989,0.059662
7.334896,0.059485
7.338804,0.059540
7.342712,0.059871
7.346620,0.059837
7.350528,0.058039
7.354435,0.053898
7.358343,0.049428
7.362251,0.048896
7.366159,0.055645
7.370066,0.068330
7.373974,0.080251
7.377882,0.083461
7.381790,0.075138
7.385698,0.060939
7.389605,0.051787
7.393513,0.055978
7.397421,0.073170
7.401329,0.096346
7.405236,0.121543
7.409144,0.157685
7.413052,0.226746
7.416960,0.350660
7.420868,0.532097
7.424775,0.743099
7.428683,0.932194
7.432591,1.048094
7.436499,1.065316
7.440406,0.994152
7.444314,0.867766
7.448222,0.715781
7.452130,0.544097
7.456038,0.336304
7.459945,0.075695
7.463853,-0.229019
7.467761,-0.534584
7.471669,-0.778994
7.475576,-0.912448
7.479484,-0.922961
7.483392,-0.840327
7.487300,-0.717497
7.491208,-0.603186
7.495115,-0.523177
7.499023,-0.478989
7.502931,-0.459329
7.506839,-0.452376
7.510746,-0.450017
7.514654,-0.444459
7.518562,-0.424546
7.522470,-0.378118
7.526377,-0.299770
7.530285,-0.197284
7.534193,-0.090287
7.538101,-0.000874
7.542009,0.057582
7.545916,0.085752
7.549824,0.094734
7.553732,0.097088
7.557640,0.099501
7.561547,0.101833
7.565455,0.101786
7.569363,0.100113
7.573271,0.101623
7.577179,0.111354
7.581086,0.129585
7.584994,0.150272
7.588902,0.164481
7.592810,0.166176
7.596717,0.155864
7.600625,0.139442
7.604533,0.123473
7.608441,0.110800
7.612349,0.099858
7.616256,0.087845
7.620164,0.074799
7.624072,0.064958
7.627980,0.064114
7.631887,0.075051
7.635795,0.094802
7.639703,0.115986
7.643611,0.131127
7.647519,0.136496
7.651426,0.132636
7.655334,0.121853
7.659242,0.105573
7.663150,0.084320
7.667057,0.060177
7.670965,0.038814
7.674873,0.028085
7.678781,0.033223
7.682689,0.052068
7.686596,0.074463
7.690504,0.087089
7.694412,0.080817
7.698320,0.055584
7.702227,0.019489
7.706135,-0.016929
7.710043,-0.046890
7.713951,-0.069739
7.717859,-0.088549
7.721766,-0.105794
7.725674,-0.121066
7.729582,-0.132517
7.733490,-0.140148
7.737397,-0.147474
7.741305,-0.159712
7.745213,-0.179966
7.749121,-0.206828
7.753029,-0.235700
7.756936,-0.262810
7.760844,-0.288347
7.764752,-0.315733
7.768660,-0.347321
7.772567,-0.380158
7.776475,-0.405764
7.780383,-0.414904
7.784291,-0.404211
7.788199,-0.379654
7.792106,-0.353850
7.796014,-0.338617
7.799922,-0.337670
7.803830,-0.344359
7.807737,-0.345922
7.811645,-0.331323
7.815553,-0.297618
7.819461,-0.251027
7.823369,-0.202597
7.827276,-0.161688
7.831184,-0.131524
7.835092,-0.109138
7.839000,-0.088928
7.842907,-0.066895
7.846815,-0.042780
7.850723,-0.019291
7.854631,0.000383
7.858538,0.014760
7.862446,0.024619
7.866354,0.031950
7.870262,0.038388
7.874170,0.044385
7.878077,0.049605
7.881985,0.053934
7.885893,0.057955
7.889801,0.062293
7.893708,0.066398
7.897616,0.068093
7.901524,0.064759
7.905432,0.055623
7.909340,0.043451
7.913247,0.033928
7.917155,0.032563
7.921063,0.040936
7.924971,0.054954
7.928878,0.066746
7.932786,0.069301
7.936694,0.060853
7.940602,0.045954
7.944510,0.032436
7.948417,0.026402
7.952325,0.028718
7.956233,0.035233
7.960141,0.040200
7.964048,0.040196
7.967956,0.035780
7.971864,0.030049
7.975772,0.025629
7.979680,0.022634
7.983587,0.019154
7.987495,0.013610
7.991403,0.006806
7.995311,0.001807
7.999218,0.001642
8.003126,0.006692
8.007034,0.013918
8.010942,0.018623
8.014850,0.017485
8.018757,0.010590
8.022665,0.001080
8.026573,-0.007152
8.030481,-0.011841
8.034388,-0.013096
8.038296,-0.012276
8.042204,-0.010327
8.046112,-0.007201
8.050020,-0.002792
8.053927,0.001799
8.057835,0.004331
8.061743,0.003182
8.065651,-0.000666
8.069558,-0.003512
8.073466,-0.001355
8.077374,0.006746
8.081282,0.017082
8.085190,0.023087
8.089097,0.019626
8.093005,0.006831
8.096913,-0.009355
8.100821,-0.020553
8.104728,-0.021115
8.108636,-0.011629
8.112544,0.001604
8.116452,0.010721
8.120360,0.011179
8.124267,0.004104
8.128175,-0.005288
8.132083,-0.011745
8.135991,-0.013402
8.139898,-0.012184
8.143806,-0.011295
8.147714,-0.012120
8.151622,-0.013163
8.155530,-0.011792
8.159437,-0.007131
8.163345,-0.001474
8.167253,0.001153
8.171161,-0.001824
8.175068,-0.009214
8.178976,-0.016578
8.182884,-0.019279
8.186792,-0.015776
8.190699,-0.008755
8.194607,-0.003348
8.198515,-0.003808
8.202423,-0.010990
8.206331,-0.022190
8.210238,-0.033101
8.214146,-0.040276
8.218054,-0.042526
8.221962,-0.040776
8.225869,-0.037085
8.229777,-0.033782
8.233685,-0.033052
8.237593,-0.036619
8.241501,-0.045100
8.245408,-0.057255
8.249316,-0.069933
8.253224,-0.079236
8.257132,-0.082456
8.261039,-0.079510
8.264947,-0.072796
8.268855,-0.065508
8.272763,-0.059650
8.276671,-0.055237
8.280578,-0.051124
8.284486,-0.046610
8.288394,-0.042333
8.292302,-0.039715
8.296209,-0.039536
8.300117,-0.041024
8.304025,-0.042330
8.307933,-0.042011
8.311841,-0.040165
8.315748,-0.038212
8.319656,-0.037530
8.323564,-0.038224
8.327472,-0.039105
8.331379,-0.038787
8.335287,-0.036763
8.339195,-0.033516
8.343103,-0.029747
8.347011,-0.025681
8.350918,-0.021246
8.354826,-0.016967
8.358734,-0.014598
8.362642,-0.016593
8.366549,-0.024494
8.370457,-0.037392
8.374365,-0.051823
8.378273,-0.063434
8.382181,-0.069344
8.386088,-0.069513
8.389996,-0.066156
8.393904,-0.061758
8.397812,-0.057335
8.401719,-0.052407
8.405627,-0.046654
8.409535,-0.041704
8.413443,-0.041144
8.417351,-0.048264
8.421258,-0.063121
8.425166,-0.081410
8.429074,-0.096461
8.432982,-0.103249
8.436889,-0.101557
8.440797,-0.095901
8.444705,-0.092119
8.448613,-0.093073
8.452521,-0.096693
8.456428,-0.097837
8.460336,-0.092581
8.464244,-0.081597
8.468152,-0.069981
8.472059,-0.063655
8.475967,-0.065191
8.479875,-0.072351
8.483783,-0.080301
8.487691,-0.085211
8.491598,-0.085525
8.495506,-0.079125
8.499414,-0.058554
8.503322,-0.009181
8.507229,0.086006
8.511137,0.235970
8.515045,0.431498
8.518953,0.642460
8.522860,0.825617
8.526768,0.939539
8.530676,0.958620
8.534584,0.878943
8.538492,0.714267
8.542399,0.486586
8.546307,0.218245
8.550215,-0.070076
8.554123,-0.356640
8.558030,-0.616312
8.561938,-0.823164
8.565846,-0.958143
8.569754,-1.017080
8.573662,-1.013063
8.577569,-0.970614
8.581477,-0.914693
8.585385,-0.861045
8.589293,-0.813203
8.593200,-0.766615
8.597108,-0.715736
8.601016,-0.658756
8.604924,-0.597473
8.608832,-0.533951
8.612739,-0.467868
8.616647,-0.397319
8.620555,-0.322488
8.624463,-0.248890
8.628370,-0.186878
8.632278,-0.146854
8.636186,-0.132950
8.640094,-0.139410
8.644002,-0.152463
8.647909,-0.157019
8.651817,-0.144405
8.655725,-0.116503
8.659633,-0.083825
8.663540,-0.058832
8.667448,-0.048708
8.671356,-0.051955
8.675264,-0.060524
8.679172,-0.065557
8.683079,-0.062769
8.686987,-0.054086
8.690895,-0.045035
8.694803,-0.040260
8.698710,-0.040546
8.702618,-0.043181
8.706526,-0.044722
8.710434,-0.043549
8.714342,-0.040194
8.718249,-0.035719
8.722157,-0.030154
8.726065,-0.022717
8.729973,-0.013582
8.733880,-0.005293
8.737788,-0.002099
8.741696,-0.007323
8.745604,-0.020664
8.749512,-0.037586
8.753419,-0.051472
8.757327,-0.057207
8.761235,-0.053923
8.765143,-0.045219
8.769050,-0.036899
8.772958,-0.033793
8.776866,-0.037596
8.780774,-0.046772
8.784682,-0.058174
8.788589,-0.069076
8.792497,-0.078361
8.796405,-0.086447
8.800313,-0.094421
8.804220,-0.103170
8.808128,-0.112983
8.812036,-0.123636
8.815944,-0.134765
8.819852,-0.146254
8.823759,-0.158416
8.827667,-0.171812
8.831575,-0.186782
8.835483,-0.203071
8.839390,-0.220001
8.843298,-0.237274
8.847206,-0.255768
8.851114,-0.277452
8.855021,-0.304015
8.858929,-0.334917
8.862837,-0.366410
8.866745,-0.392755
8.870653,-0.409340
8.874560,-0.415704
8.878468,-0.416105
8.882376,-0.416786
8.886284,-0.421573
8.890191,-0.428857
8.894099,-0.432185
8.898007,-0.424159
8.901915,-0.401073
8.905823,-0.365305
8.909730,-0.324076
8.913638,-0.285559
8.917546,-0.254867
8.921454,-0.232280
8.925361,-0.214398
8.929269,-0.197016
8.933177,-0.177651
8.937085,-0.156296
8.940993,-0.134463
8.944900,-0.113682
8.948808,-0.094725
8.952716,-0.077913
8.956624,-0.063868
8.960531,-0.053719
8.964439,-0.048365
8.968347,-0.047339
8.972255,-0.048330
8.976163,-0.048009
8.980070,-0.043873
8.983978,-0.035924
8.987886,-0.026938
8.991794,-0.020938
8.995701,-0.020757
8.999609,-0.026273
9.003517,-0.034502
9.007425,-0.041513
9.011333,-0.044878
9.015240,-0.045033
9.019148,-0.044650
9.023056,-0.046505
9.026964,-0.051360
9.030871,-0.057331
9.034779,-0.061163
9.038687,-0.060456
9.042595,-0.055251
9.046503,-0.047901
9.050410,-0.041417
9.054318,-0.037630
9.058226,-0.036588
9.062134,-0.037479
9.066041,-0.040067
9.069949,-0.045190
9.073857,-0.053801
9.077765,-0.065390
9.081673,-0.077232
9.085580,-0.085220
9.089488,-0.085802
9.093396,-0.077711
9.097304,-0.062518
9.101211,-0.043983
9.105119,-0.026875
9.109027,-0.015841
9.112935,-0.014329
9.116843,-0.023395
9.120750,-0.040633
9.124658,-0.060143
9.128566,-0.074357
9.132474,-0.077433
9.136381,-0.068514
9.140289,-0.052701
9.144197,-0.038687
9.148105,-0.034168
9.152013,-0.041654
9.155920,-0.057232
9.159828,-0.073001
9.163736,-0.081654
9.167644,-0.080430
9.171551,-0.072201
9.175459,-0.063265
9.179367,-0.059412
9.183275,-0.062721
9.187182,-0.070915
9.191090,-0.079335
9.194998,-0.083942
9.198906,-0.083307
9.202814,-0.078628
9.206721,-0.072289
9.210629,-0.066385
9.214537,-0.062163
9.218445,-0.060279
9.222352,-0.061050
9.226260,-0.064121
9.230168,-0.067843
9.234076,-0.069271
9.237984,-0.065427
9.241891,-0.055408
9.245799,-0.041904
9.249707,-0.030639
9.253615,-0.027446
9.257522,-0.034492
9.261430,-0.048226
9.265338,-0.060888
9.269246,-0.065113
9.273154,-0.058809
9.277061,-0.046896
9.280969,-0.038410
9.284877,-0.040593
9.288785,-0.053871
9.292692,-0.071175
9.296600,-0.082232
9.300508,-0.080083
9.304416,-0.065531
9.308324,-0.046591
9.312231,-0.033361
9.316139,-0.031770
9.320047,-0.040248
9.323955,-0.051294
9.327862,-0.056655
9.331770,-0.052598
9.335678,-0.041941
9.339586,-0.031825
9.343494,-0.028954
9.347401,-0.035499
9.351309,-0.048138
9.355217,-0.060483
9.359125,-0.066984
9.363032,-0.065732
9.366940,-0.058711
9.370848,-0.049891
9.374756,-0.042747
9.378664,-0.038765
9.382571,-0.037432
9.386479,-0.037206
9.390387,-0.036568
9.394295,-0.034543
9.398202,-0.030713
9.402110,-0.025111
9.406018,-0.018275
9.409926,-0.011383
9.413834,-0.006149
9.417741,-0.004328
9.421649,-0.006957
9.425557,-0.013762
9.429465,-0.023075
9.433372,-0.032408
9.437280,-0.039446
9.441188,-0.042998
9.445096,-0.043430
9.449004,-0.042392
9.452911,-0.041933
9.456819,-0.043473
9.460727,-0.047149
9.464635,-0.051932
9.468542,-0.056426
9.472450,-0.059796
9.476358,-0.062124
9.480266,-0.063949
9.484174,-0.065444
9.488081,-0.066048
9.491989,-0.064965
9.495897,-0.062115
9.499805,-0.058558
9.503712,-0.055810
9.507620,-0.054463
9.511528,-0.053378
9.515436,-0.050453
9.519343,-0.044682
9.523251,-0.037857
9.527159,-0.034185
9.531067,-0.037527
9.534975,-0.048053
9.538882,-0.061069
9.542790,-0.069534
9.546698,-0.068832
9.550606,-0.059961
9.554513,-0.047669
9.558421,-0.033689
9.562329,-0.009716
9.566237,0.043481
9.570145,0.147605
9.574052,0.312431
9.577960,0.524159
9.581868,0.744956
9.585776,0.925629
9.589683,1.024841
9.593591,1.023671
9.597499,0.927412
9.601407,0.755267
9.605315,0.526881
9.609222,0.256000
9.613130,-0.044999
9.617038,-0.355323
9.620946,-0.641057
9.624853,-0.862208
9.628761,-0.988825
9.632669,-1.015834
9.636577,-0.966121
9.640485,-0.879143
9.644392,-0.792135
9.648300,-0.725572
9.652208,-0.680712
9.656116,-0.648053
9.660023,-0.618407
9.663931,-0.588173
9.667839,-0.556693
9.671747,-0.520581
9.675655,-0.471969
9.679562,-0.403369
9.683470,-0.315369
9.687378,-0.220245
9.691286,-0.137428
9.695193,-0.083152
9.699101,-0.061307
9.703009,-0.061854
9.706917,-0.067713
9.710825,-0.065187
9.714732,-0.050865
9.718640,-0.031036
9.722548,-0.015109
9.726456,-0.008344
9.730363,-0.008777
9.734271,-0.009564
9.738179,-0.004144
9.742087,0.009682
9.745995,0.029092
9.749902,0.048577
9.753810,0.063044
9.757718,0.069740
9.761626,0.068534
9.765533,0.061329
9.769441,0.051396
9.773349,0.042693
9.777257,0.038815
9.781165,0.041577
9.785072,0.049956
9.788980,0.060249
9.792888,0.067698
9.796796,0.068808
9.800703,0.063118
9.804611,0.053444
9.808519,0.044480
9.812427,0.040519
9.816335,0.043460
9.820242,0.052097
9.824150,0.062918
9.828058,0.071893
9.831966,0.076232
9.835873,0.075247
9.839781,0.070015
9.843689,0.062231
9.847597,0.053099
9.851504,0.042970
9.855412,0.031869
9.859320,0.020342
9.863228,0.009791
9.867136,0.001846
9.871043,-0.002898
9.874951,-0.005805
9.878859,-0.009947
9.882767,-0.018644
9.886674,-0.033726
9.890582,-0.054746
9.894490,-0.079648
9.898398,-0.106253
9.902306,-0.133294
9.906213,-0.160297
9.910121,-0.186646
9.914029,-0.210878
9.917937,-0.230984
9.921844,-0.245613
9.925752,-0.255312
9.929660,-0.262795
9.933568,-0.271707
9.937476,-0.284412
9.941383,-0.300150
9.945291,-0.314910
9.949199,-0.323300
9.953107,-0.321279
9.957014,-0.308042
9.960922,-0.286008
9.964830,-0.259140
9.968738,-0.230829
9.972646,-0.202623
9.976553,-0.174376
9.980461,-0.145409
9.984369,-0.115693
9.988277,-0.086201
9.992184,-0.058273
9.996092,-0.032581
10.000000,-0.008505
